,Sample,12492,12488,12484,12480,12476,12472,12468,12464,12460,12456,12452,12448,12444,12440,12436,12432,12428,12424,12420,12416,12412,12408,12404,12400,12396,12392,12388,12384,12380,12376,12372,12368,12364,12360,12356,12352,12348,12344,12340,12336,12332,12328,12324,12320,12316,12312,12308,12304,12300,12296,12292,12288,12284,12280,12276,12272,12268,12264,12260,12256,12252,12248,12244,12240,12236,12232,12228,12224,12220,12216,12212,12208,12204,12200,12196,12192,12188,12184,12180,12176,12172,12168,12164,12160,12156,12152,12148,12144,12140,12136,12132,12128,12124,12120,12116,12112,12108,12104,12100,12096,12092,12088,12084,12080,12076,12072,12068,12064,12060,12056,12052,12048,12044,12040,12036,12032,12028,12024,12020,12016,12012,12008,12004,12000,11996,11992,11988,11984,11980,11976,11972,11968,11964,11960,11956,11952,11948,11944,11940,11936,11932,11928,11924,11920,11916,11912,11908,11904,11900,11896,11892,11888,11884,11880,11876,11872,11868,11864,11860,11856,11852,11848,11844,11840,11836,11832,11828,11824,11820,11816,11812,11808,11804,11800,11796,11792,11788,11784,11780,11776,11772,11768,11764,11760,11756,11752,11748,11744,11740,11736,11732,11728,11724,11720,11716,11712,11708,11704,11700,11696,11692,11688,11684,11680,11676,11672,11668,11664,11660,11656,11652,11648,11644,11640,11636,11632,11628,11624,11620,11616,11612,11608,11604,11600,11596,11592,11588,11584,11580,11576,11572,11568,11564,11560,11556,11552,11548,11544,11540,11536,11532,11528,11524,11520,11516,11512,11508,11504,11500,11496,11492,11488,11484,11480,11476,11472,11468,11464,11460,11456,11452,11448,11444,11440,11436,11432,11428,11424,11420,11416,11412,11408,11404,11400,11396,11392,11388,11384,11380,11376,11372,11368,11364,11360,11356,11352,11348,11344,11340,11336,11332,11328,11324,11320,11316,11312,11308,11304,11300,11296,11292,11288,11284,11280,11276,11272,11268,11264,11260,11256,11252,11248,11244,11240,11236,11232,11228,11224,11220,11216,11212,11208,11204,11200,11196,11192,11188,11184,11180,11176,11172,11168,11164,11160,11156,11152,11148,11144,11140,11136,11132,11128,11124,11120,11116,11112,11108,11104,11100,11096,11092,11088,11084,11080,11076,11072,11068,11064,11060,11056,11052,11048,11044,11040,11036,11032,11028,11024,11020,11016,11012,11008,11004,11000,10996,10992,10988,10984,10980,10976,10972,10968,10964,10960,10956,10952,10948,10944,10940,10936,10932,10928,10924,10920,10916,10912,10908,10904,10900,10896,10892,10888,10884,10880,10876,10872,10868,10864,10860,10856,10852,10848,10844,10840,10836,10832,10828,10824,10820,10816,10812,10808,10804,10800,10796,10792,10788,10784,10780,10776,10772,10768,10764,10760,10756,10752,10748,10744,10740,10736,10732,10728,10724,10720,10716,10712,10708,10704,10700,10696,10692,10688,10684,10680,10676,10672,10668,10664,10660,10656,10652,10648,10644,10640,10636,10632,10628,10624,10620,10616,10612,10608,10604,10600,10596,10592,10588,10584,10580,10576,10572,10568,10564,10560,10556,10552,10548,10544,10540,10536,10532,10528,10524,10520,10516,10512,10508,10504,10500,10496,10492,10488,10484,10480,10476,10472,10468,10464,10460,10456,10452,10448,10444,10440,10436,10432,10428,10424,10420,10416,10412,10408,10404,10400,10396,10392,10388,10384,10380,10376,10372,10368,10364,10360,10356,10352,10348,10344,10340,10336,10332,10328,10324,10320,10316,10312,10308,10304,10300,10296,10292,10288,10284,10280,10276,10272,10268,10264,10260,10256,10252,10248,10244,10240,10236,10232,10228,10224,10220,10216,10212,10208,10204,10200,10196,10192,10188,10184,10180,10176,10172,10168,10164,10160,10156,10152,10148,10144,10140,10136,10132,10128,10124,10120,10116,10112,10108,10104,10100,10096,10092,10088,10084,10080,10076,10072,10068,10064,10060,10056,10052,10048,10044,10040,10036,10032,10028,10024,10020,10016,10012,10008,10004,10000,9996,9992,9988,9984,9980,9976,9972,9968,9964,9960,9956,9952,9948,9944,9940,9936,9932,9928,9924,9920,9916,9912,9908,9904,9900,9896,9892,9888,9884,9880,9876,9872,9868,9864,9860,9856,9852,9848,9844,9840,9836,9832,9828,9824,9820,9816,9812,9808,9804,9800,9796,9792,9788,9784,9780,9776,9772,9768,9764,9760,9756,9752,9748,9744,9740,9736,9732,9728,9724,9720,9716,9712,9708,9704,9700,9696,9692,9688,9684,9680,9676,9672,9668,9664,9660,9656,9652,9648,9644,9640,9636,9632,9628,9624,9620,9616,9612,9608,9604,9600,9596,9592,9588,9584,9580,9576,9572,9568,9564,9560,9556,9552,9548,9544,9540,9536,9532,9528,9524,9520,9516,9512,9508,9504,9500,9496,9492,9488,9484,9480,9476,9472,9468,9464,9460,9456,9452,9448,9444,9440,9436,9432,9428,9424,9420,9416,9412,9408,9404,9400,9396,9392,9388,9384,9380,9376,9372,9368,9364,9360,9356,9352,9348,9344,9340,9336,9332,9328,9324,9320,9316,9312,9308,9304,9300,9296,9292,9288,9284,9280,9276,9272,9268,9264,9260,9256,9252,9248,9244,9240,9236,9232,9228,9224,9220,9216,9212,9208,9204,9200,9196,9192,9188,9184,9180,9176,9172,9168,9164,9160,9156,9152,9148,9144,9140,9136,9132,9128,9124,9120,9116,9112,9108,9104,9100,9096,9092,9088,9084,9080,9076,9072,9068,9064,9060,9056,9052,9048,9044,9040,9036,9032,9028,9024,9020,9016,9012,9008,9004,9000,8996,8992,8988,8984,8980,8976,8972,8968,8964,8960,8956,8952,8948,8944,8940,8936,8932,8928,8924,8920,8916,8912,8908,8904,8900,8896,8892,8888,8884,8880,8876,8872,8868,8864,8860,8856,8852,8848,8844,8840,8836,8832,8828,8824,8820,8816,8812,8808,8804,8800,8796,8792,8788,8784,8780,8776,8772,8768,8764,8760,8756,8752,8748,8744,8740,8736,8732,8728,8724,8720,8716,8712,8708,8704,8700,8696,8692,8688,8684,8680,8676,8672,8668,8664,8660,8656,8652,8648,8644,8640,8636,8632,8628,8624,8620,8616,8612,8608,8604,8600,8596,8592,8588,8584,8580,8576,8572,8568,8564,8560,8556,8552,8548,8544,8540,8536,8532,8528,8524,8520,8516,8512,8508,8504,8500,8496,8492,8488,8484,8480,8476,8472,8468,8464,8460,8456,8452,8448,8444,8440,8436,8432,8428,8424,8420,8416,8412,8408,8404,8400,8396,8392,8388,8384,8380,8376,8372,8368,8364,8360,8356,8352,8348,8344,8340,8336,8332,8328,8324,8320,8316,8312,8308,8304,8300,8296,8292,8288,8284,8280,8276,8272,8268,8264,8260,8256,8252,8248,8244,8240,8236,8232,8228,8224,8220,8216,8212,8208,8204,8200,8196,8192,8188,8184,8180,8176,8172,8168,8164,8160,8156,8152,8148,8144,8140,8136,8132,8128,8124,8120,8116,8112,8108,8104,8100,8096,8092,8088,8084,8080,8076,8072,8068,8064,8060,8056,8052,8048,8044,8040,8036,8032,8028,8024,8020,8016,8012,8008,8004,8000,7996,7992,7988,7984,7980,7976,7972,7968,7964,7960,7956,7952,7948,7944,7940,7936,7932,7928,7924,7920,7916,7912,7908,7904,7900,7896,7892,7888,7884,7880,7876,7872,7868,7864,7860,7856,7852,7848,7844,7840,7836,7832,7828,7824,7820,7816,7812,7808,7804,7800,7796,7792,7788,7784,7780,7776,7772,7768,7764,7760,7756,7752,7748,7744,7740,7736,7732,7728,7724,7720,7716,7712,7708,7704,7700,7696,7692,7688,7684,7680,7676,7672,7668,7664,7660,7656,7652,7648,7644,7640,7636,7632,7628,7624,7620,7616,7612,7608,7604,7600,7596,7592,7588,7584,7580,7576,7572,7568,7564,7560,7556,7552,7548,7544,7540,7536,7532,7528,7524,7520,7516,7512,7508,7504,7500,7496,7492,7488,7484,7480,7476,7472,7468,7464,7460,7456,7452,7448,7444,7440,7436,7432,7428,7424,7420,7416,7412,7408,7404,7400,7396,7392,7388,7384,7380,7376,7372,7368,7364,7360,7356,7352,7348,7344,7340,7336,7332,7328,7324,7320,7316,7312,7308,7304,7300,7296,7292,7288,7284,7280,7276,7272,7268,7264,7260,7256,7252,7248,7244,7240,7236,7232,7228,7224,7220,7216,7212,7208,7204,7200,7196,7192,7188,7184,7180,7176,7172,7168,7164,7160,7156,7152,7148,7144,7140,7136,7132,7128,7124,7120,7116,7112,7108,7104,7100,7096,7092,7088,7084,7080,7076,7072,7068,7064,7060,7056,7052,7048,7044,7040,7036,7032,7028,7024,7020,7016,7012,7008,7004,7000,6996,6992,6988,6984,6980,6976,6972,6968,6964,6960,6956,6952,6948,6944,6940,6936,6932,6928,6924,6920,6916,6912,6908,6904,6900,6896,6892,6888,6884,6880,6876,6872,6868,6864,6860,6856,6852,6848,6844,6840,6836,6832,6828,6824,6820,6816,6812,6808,6804,6800,6796,6792,6788,6784,6780,6776,6772,6768,6764,6760,6756,6752,6748,6744,6740,6736,6732,6728,6724,6720,6716,6712,6708,6704,6700,6696,6692,6688,6684,6680,6676,6672,6668,6664,6660,6656,6652,6648,6644,6640,6636,6632,6628,6624,6620,6616,6612,6608,6604,6600,6596,6592,6588,6584,6580,6576,6572,6568,6564,6560,6556,6552,6548,6544,6540,6536,6532,6528,6524,6520,6516,6512,6508,6504,6500,6496,6492,6488,6484,6480,6476,6472,6468,6464,6460,6456,6452,6448,6444,6440,6436,6432,6428,6424,6420,6416,6412,6408,6404,6400,6396,6392,6388,6384,6380,6376,6372,6368,6364,6360,6356,6352,6348,6344,6340,6336,6332,6328,6324,6320,6316,6312,6308,6304,6300,6296,6292,6288,6284,6280,6276,6272,6268,6264,6260,6256,6252,6248,6244,6240,6236,6232,6228,6224,6220,6216,6212,6208,6204,6200,6196,6192,6188,6184,6180,6176,6172,6168,6164,6160,6156,6152,6148,6144,6140,6136,6132,6128,6124,6120,6116,6112,6108,6104,6100,6096,6092,6088,6084,6080,6076,6072,6068,6064,6060,6056,6052,6048,6044,6040,6036,6032,6028,6024,6020,6016,6012,6008,6004,6000,5996,5992,5988,5984,5980,5976,5972,5968,5964,5960,5956,5952,5948,5944,5940,5936,5932,5928,5924,5920,5916,5912,5908,5904,5900,5896,5892,5888,5884,5880,5876,5872,5868,5864,5860,5856,5852,5848,5844,5840,5836,5832,5828,5824,5820,5816,5812,5808,5804,5800,5796,5792,5788,5784,5780,5776,5772,5768,5764,5760,5756,5752,5748,5744,5740,5736,5732,5728,5724,5720,5716,5712,5708,5704,5700,5696,5692,5688,5684,5680,5676,5672,5668,5664,5660,5656,5652,5648,5644,5640,5636,5632,5628,5624,5620,5616,5612,5608,5604,5600,5596,5592,5588,5584,5580,5576,5572,5568,5564,5560,5556,5552,5548,5544,5540,5536,5532,5528,5524,5520,5516,5512,5508,5504,5500,5496,5492,5488,5484,5480,5476,5472,5468,5464,5460,5456,5452,5448,5444,5440,5436,5432,5428,5424,5420,5416,5412,5408,5404,5400,5396,5392,5388,5384,5380,5376,5372,5368,5364,5360,5356,5352,5348,5344,5340,5336,5332,5328,5324,5320,5316,5312,5308,5304,5300,5296,5292,5288,5284,5280,5276,5272,5268,5264,5260,5256,5252,5248,5244,5240,5236,5232,5228,5224,5220,5216,5212,5208,5204,5200,5196,5192,5188,5184,5180,5176,5172,5168,5164,5160,5156,5152,5148,5144,5140,5136,5132,5128,5124,5120,5116,5112,5108,5104,5100,5096,5092,5088,5084,5080,5076,5072,5068,5064,5060,5056,5052,5048,5044,5040,5036,5032,5028,5024,5020,5016,5012,5008,5004,5000,4996,4992,4988,4984,4980,4976,4972,4968,4964,4960,4956,4952,4948,4944,4940,4936,4932,4928,4924,4920,4916,4912,4908,4904,4900,4896,4892,4888,4884,4880,4876,4872,4868,4864,4860,4856,4852,4848,4844,4840,4836,4832,4828,4824,4820,4816,4812,4808,4804,4800,4796,4792,4788,4784,4780,4776,4772,4768,4764,4760,4756,4752,4748,4744,4740,4736,4732,4728,4724,4720,4716,4712,4708,4704,4700,4696,4692,4688,4684,4680,4676,4672,4668,4664,4660,4656,4652,4648,4644,4640,4636,4632,4628,4624,4620,4616,4612,4608,4604,4600,4596,4592,4588,4584,4580,4576,4572,4568,4564,4560,4556,4552,4548,4544,4540,4536,4532,4528,4524,4520,4516,4512,4508,4504,4500,4496,4492,4488,4484,4480,4476,4472,4468,4464,4460,4456,4452,4448,4444,4440,4436,4432,4428,4424,4420,4416,4412,4408,4404,4400,4396,4392,4388,4384,4380,4376,4372,4368,4364,4360,4356,4352,4348,4344,4340,4336,4332,4328,4324,4320,4316,4312,4308,4304,4300,4296,4292,4288,4284,4280,4276,4272,4268,4264,4260,4256,4252,4248,4244,4240,4236,4232,4228,4224,4220,4216,4212,4208,4204,4200,4196,4192,4188,4184,4180,4176,4172,4168,4164,4160,4156,4152,4148,4144,4140,4136,4132,4128,4124,4120,4116,4112,4108,4104,4100,4096,4092,4088,4084,4080,4076,4072,4068,4064,4060,4056,4052,4048,4044,4040,4036,4032,4028,4024,4020,4016,4012,4008,4004,4000
Bromoform Sample,1,0.158348,0.158224,0.1580962,0.1581375,0.1583768,0.1585041,0.1584758,0.1584995,0.158478,0.158279,0.1579784,0.1577855,0.1578258,0.1578941,0.1578461,0.1578185,0.1578331,0.1577919,0.1577236,0.1576585,0.1575916,0.1575549,0.1575211,0.1574856,0.1574514,0.1573521,0.1572187,0.1571744,0.1572792,0.1573879,0.1573915,0.1574682,0.1576649,0.1577833,0.1576949,0.1575174,0.1574805,0.1576241,0.1577881,0.1577689,0.1575713,0.1573774,0.1572509,0.1572257,0.1573117,0.1573612,0.1573644,0.1574156,0.1574096,0.1572894,0.1571547,0.1570449,0.1569301,0.1567823,0.1566228,0.1565076,0.156466,0.1564819,0.1565192,0.1564993,0.1563703,0.1562367,0.1562527,0.1563326,0.156259,0.1560569,0.1559055,0.1558962,0.1559467,0.1558973,0.1557776,0.155678,0.1555605,0.1554909,0.1555517,0.1555632,0.1554409,0.1553276,0.1552585,0.1552117,0.1551272,0.1549077,0.1546287,0.1544181,0.1542815,0.15424,0.1542191,0.1539972,0.1535798,0.1532359,0.1530977,0.1530411,0.1529278,0.1527207,0.1524881,0.1523692,0.1523649,0.152316,0.152197,0.1521229,0.1520518,0.1518971,0.1516803,0.1513598,0.1509332,0.1505393,0.1502698,0.1500677,0.1497496,0.1492641,0.1487889,0.1484082,0.1480564,0.1477028,0.1473314,0.1469578,0.1466586,0.1464619,0.1463552,0.1462486,0.1460006,0.1457414,0.1456743,0.1456962,0.1456555,0.1455849,0.1455695,0.1455714,0.1455379,0.1455563,0.1456361,0.1456217,0.1454875,0.1453764,0.1452937,0.1451093,0.1448089,0.1444968,0.1442502,0.1440167,0.1437275,0.1434603,0.1432368,0.142944,0.1425698,0.1421883,0.1418167,0.1414713,0.1412115,0.1409583,0.1405995,0.1402068,0.1398163,0.1393797,0.1388862,0.1384018,0.1380329,0.1377027,0.1372919,0.1368506,0.1364138,0.1360133,0.135709,0.1354452,0.1351759,0.1348857,0.134549,0.1342772,0.1341124,0.1339257,0.1337193,0.1335779,0.133495,0.1333921,0.1332263,0.1331285,0.1331441,0.1331246,0.1330151,0.1328942,0.1328611,0.1328511,0.1327391,0.1326114,0.1325783,0.1325653,0.1324972,0.1324559,0.1325124,0.1326424,0.1327798,0.1328523,0.1328324,0.1327582,0.1327428,0.1328384,0.1329863,0.1331405,0.1332218,0.1331499,0.1330452,0.1330864,0.1332022,0.1332885,0.1334223,0.1335504,0.1335593,0.1335649,0.1336862,0.133872,0.1339806,0.1339481,0.1338685,0.1338522,0.1339583,0.1341208,0.134214,0.1342828,0.1344105,0.1345073,0.1344899,0.1344804,0.1345599,0.1346427,0.1347343,0.1348443,0.1348832,0.1348854,0.1349614,0.1350945,0.1352282,0.1353787,0.1355221,0.1355996,0.1356518,0.1357299,0.1358322,0.1359309,0.135973,0.1360066,0.1361112,0.1362296,0.1363568,0.136552,0.1367424,0.1368614,0.1369789,0.1371347,0.1372574,0.137347,0.1375073,0.1377352,0.1379154,0.1380098,0.1381046,0.1382401,0.1383403,0.1384069,0.1385276,0.1386772,0.1387699,0.1388177,0.1388932,0.1390097,0.1391194,0.1391784,0.1391935,0.1392445,0.1393626,0.1394643,0.1395418,0.139701,0.1399271,0.1401016,0.1402122,0.1403343,0.1405069,0.1406647,0.1407559,0.1408717,0.1410438,0.1411832,0.1413226,0.1415389,0.1418035,0.1420759,0.1422989,0.1424417,0.1425711,0.1427705,0.1430645,0.1433942,0.1436637,0.143843,0.144006,0.1442129,0.1444667,0.1447811,0.1451076,0.1453663,0.145573,0.1458286,0.1461343,0.1464304,0.1467976,0.1472309,0.1475773,0.1478664,0.1482108,0.148592,0.14894,0.1492261,0.1494954,0.149763,0.1500205,0.1503476,0.1507189,0.1509669,0.1510736,0.1512182,0.1515304,0.1519111,0.1521442,0.1522204,0.1523413,0.1525788,0.1528392,0.1530261,0.1531076,0.1531785,0.1533607,0.1535823,0.1537194,0.153826,0.1539628,0.154069,0.1540932,0.1541252,0.1542677,0.1544662,0.1546385,0.1547331,0.1547239,0.154722,0.1548858,0.1552455,0.1556976,0.1560364,0.1561702,0.1562,0.1561847,0.1561553,0.1561997,0.1565028,0.1571029,0.1575544,0.157589,0.1575293,0.1576149,0.157812,0.1581548,0.158735,0.1593072,0.1596237,0.1599763,0.160321,0.1602782,0.1603211,0.161167,0.1622885,0.1626982,0.1625946,0.1626727,0.163115,0.1637179,0.1646782,0.1663019,0.167551,0.1677395,0.1675601,0.1672147,0.1667787,0.166719,0.16725,0.1686694,0.1704795,0.1709968,0.1704032,0.1705468,0.1713591,0.1718613,0.17233,0.1730271,0.1732989,0.173049,0.1727809,0.1725704,0.1729155,0.1741111,0.175442,0.1763313,0.1767927,0.1770708,0.1768215,0.1763271,0.1768537,0.1777488,0.1782086,0.1790315,0.1794717,0.178575,0.1775216,0.1771812,0.1772954,0.178036,0.1797626,0.1817538,0.1828514,0.1826856,0.1816614,0.1808286,0.1806489,0.1805244,0.1805376,0.1813493,0.1827239,0.1835253,0.1830272,0.1821569,0.1823959,0.1832931,0.1832251,0.1823276,0.1821723,0.1831884,0.1840302,0.1835458,0.1822426,0.18123,0.1809291,0.1811495,0.1813593,0.180935,0.1800258,0.1796499,0.1804722,0.181476,0.1810394,0.179629,0.1789909,0.1794346,0.1794148,0.1781881,0.1774733,0.177494,0.1763936,0.1745871,0.1734871,0.1730055,0.1726605,0.1718243,0.1703478,0.1690248,0.168229,0.167756,0.1673107,0.1666195,0.16589,0.165666,0.1657317,0.1652059,0.1641277,0.1632512,0.1626961,0.1621183,0.1614324,0.1610385,0.1613108,0.161528,0.1609357,0.1602215,0.159815,0.1593485,0.1587826,0.1581041,0.157468,0.1571408,0.1571382,0.1573843,0.1577355,0.1582299,0.1586665,0.1583,0.1571712,0.1565196,0.1568359,0.1569526,0.1564935,0.1566667,0.157435,0.1576771,0.1570707,0.155935,0.155016,0.1546726,0.1546764,0.1549978,0.1553603,0.1553395,0.1554072,0.1558724,0.1557938,0.155033,0.1546407,0.1546172,0.1542815,0.1538113,0.1538764,0.1547903,0.1559911,0.1562065,0.1551094,0.1539444,0.1537605,0.1542138,0.1543182,0.1539111,0.1537092,0.1538983,0.1541515,0.1543736,0.1543561,0.1540885,0.1539469,0.1539152,0.1538163,0.1537731,0.1538824,0.1539388,0.1538183,0.153838,0.1540551,0.1541056,0.1540315,0.1541313,0.1542672,0.1541728,0.153977,0.1538567,0.1537837,0.1537932,0.1539605,0.1541311,0.1540895,0.1539642,0.1539794,0.1540524,0.1540326,0.1539652,0.1539349,0.1539355,0.1539626,0.1540463,0.1541531,0.1541898,0.1541674,0.1541792,0.1542078,0.1542076,0.1542185,0.154252,0.1542642,0.1542533,0.1542683,0.1543205,0.1543569,0.1543717,0.1543922,0.1544053,0.1544174,0.1544228,0.1544254,0.1544755,0.1545587,0.1546315,0.154691,0.1547458,0.1547945,0.1548304,0.1548879,0.1549903,0.1550942,0.1551702,0.1552315,0.155294,0.1553512,0.1554017,0.1554822,0.1556081,0.1557477,0.1558618,0.1559318,0.1559814,0.1560476,0.1561286,0.1562121,0.1563209,0.1564724,0.1566259,0.1567378,0.1568138,0.156883,0.1569737,0.1571053,0.1572598,0.1573904,0.1574883,0.1575832,0.157706,0.1578456,0.1579704,0.1580752,0.1581508,0.1582192,0.1583275,0.1584604,0.1585709,0.1586607,0.1587719,0.1588983,0.1590017,0.1591066,0.1592438,0.1593915,0.1595405,0.1597138,0.1599241,0.1601604,0.1603921,0.1606066,0.1608149,0.1610131,0.1611932,0.1613607,0.1615468,0.1617744,0.1620029,0.1622035,0.1623978,0.1626033,0.1628131,0.163001,0.1631596,0.1633247,0.1635191,0.1637291,0.1639454,0.1641669,0.164384,0.1645844,0.1647619,0.1649344,0.1651185,0.1653025,0.1654823,0.1656586,0.1658085,0.1659165,0.1660074,0.1661184,0.1662384,0.1663287,0.1663988,0.1664744,0.1665384,0.1665913,0.1666721,0.1667656,0.1668356,0.166894,0.1669443,0.1669929,0.167077,0.1671921,0.1673029,0.1673948,0.1674608,0.1675137,0.1675923,0.1677094,0.1678475,0.1679897,0.1681314,0.1682755,0.1684306,0.1686002,0.1687694,0.1689184,0.1690477,0.1691783,0.1693183,0.1694519,0.1695715,0.1696694,0.1697498,0.169836,0.1699246,0.1700037,0.1700838,0.1701541,0.1702111,0.1702762,0.1703367,0.1703816,0.170425,0.1704628,0.1704928,0.1705265,0.1705543,0.1705554,0.1705315,0.1705013,0.1704793,0.1704425,0.1703658,0.1702683,0.1701687,0.1700752,0.1699932,0.169889,0.169733,0.1695669,0.1694371,0.1693175,0.1691792,0.1690335,0.168874,0.1686993,0.1685358,0.1683762,0.1681977,0.1680206,0.1678707,0.1677226,0.1675456,0.1673674,0.167214,0.1670455,0.1668386,0.166637,0.1664585,0.1662782,0.1660881,0.1658874,0.165675,0.165443,0.1651938,0.1649685,0.1647833,0.164597,0.164382,0.1641687,0.163988,0.1638165,0.1636216,0.1634031,0.1631995,0.1630471,0.1629178,0.1627699,0.1626147,0.162484,0.1623791,0.162272,0.1621539,0.1620353,0.1619059,0.1617627,0.1616355,0.1615237,0.1613966,0.1612627,0.1611448,0.1610387,0.1609366,0.1608415,0.1607418,0.1606219,0.1604961,0.1603912,0.1603089,0.1602312,0.1601545,0.1601035,0.1600798,0.1600562,0.1600362,0.160021,0.1599942,0.1599728,0.1599797,0.1600083,0.1600214,0.1599857,0.1599235,0.1598744,0.1598296,0.1597653,0.1596837,0.1596043,0.1595387,0.1594763,0.1594014,0.1593271,0.1592711,0.1592057,0.1591088,0.1590075,0.1589341,0.1588857,0.1588261,0.1587459,0.1586694,0.158602,0.1585269,0.1584424,0.1583708,0.1583231,0.1582894,0.1582621,0.1582376,0.1582152,0.1581991,0.1581796,0.1581537,0.1581389,0.1581261,0.158104,0.1580966,0.1581186,0.1581488,0.1581653,0.158167,0.1581736,0.1581999,0.1582199,0.158221,0.1582403,0.158278,0.1582828,0.1582534,0.1582422,0.1582654,0.1582947,0.1583198,0.1583532,0.1583919,0.1584207,0.1584419,0.1584706,0.1585117,0.1585572,0.1586024,0.1586513,0.1587,0.1587431,0.1587949,0.1588596,0.1589222,0.158981,0.1590456,0.1591222,0.1592042,0.1592866,0.1593793,0.1594832,0.1595907,0.1596997,0.1598052,0.1599277,0.1600766,0.160192,0.1602931,0.1604514,0.1606036,0.1607009,0.160809,0.1609669,0.1611241,0.1612473,0.1613852,0.1615296,0.1616554,0.1618363,0.1620656,0.1622306,0.1623657,0.1626261,0.1629609,0.163282,0.1637044,0.1641406,0.1644255,0.1647297,0.1651972,0.165728,0.1661964,0.1666403,0.1671762,0.167755,0.168266,0.1687832,0.1694127,0.1700937,0.1707809,0.1715051,0.1722841,0.1731248,0.1740325,0.1749501,0.1758123,0.1768014,0.1780083,0.1792438,0.1804923,0.1817993,0.1831151,0.1844436,0.1858216,0.1872586,0.1887153,0.1901579,0.1916095,0.1931404,0.1947812,0.1965059,0.1983396,0.2002977,0.2023483,0.2045408,0.2069587,0.2095892,0.2123794,0.2153095,0.2184042,0.2216962,0.2251316,0.2285966,0.2320072,0.2353579,0.2386919,0.2420156,0.2453131,0.24859,0.2518964,0.255347,0.2589873,0.2627423,0.266583,0.2705178,0.2745434,0.2786953,0.2829973,0.2874437,0.2920451,0.29684,0.3018755,0.3071822,0.3127082,0.3183366,0.3239584,0.329433,0.3345996,0.3393341,0.3435678,0.3472863,0.3505018,0.3532367,0.355526,0.3574025,0.3588568,0.3598326,0.360262,0.3600961,0.359352,0.3581528,0.3566546,0.3549993,0.353335,0.3517996,0.3505162,0.3495928,0.349107,0.3490776,0.3494729,0.3502528,0.3513816,0.3528111,0.354469,0.3562937,0.3582726,0.3604442,0.3628685,0.3655998,0.3687041,0.3722668,0.3763338,0.3808725,0.3858449,0.3912451,0.397035,0.4031157,0.4093689,0.4156983,0.4220311,0.4282807,0.4343432,0.4401602,0.4457249,0.4510408,0.456115,0.4609622,0.4656184,0.4701388,0.4745589,0.4789064,0.4831935,0.4873886,0.4914404,0.4953225,0.4990469,0.502608,0.5059922,0.509261,0.5125287,0.5158817,0.519369,0.5230396,0.5269324,0.5310391,0.5353261,0.5397919,0.5444403,0.5492387,0.5541504,0.5591347,0.5641288,0.569064,0.5738803,0.5784916,0.5827995,0.5867407,0.590245,0.5932218,0.5955755,0.5972345,0.59819,0.5984557,0.5980417,0.5969363,0.5950936,0.5924892,0.589125,0.5849688,0.5799826,0.5741569,0.5675054,0.5600497,0.5518072,0.5428358,0.5332281,0.5230482,0.5123737,0.5013374,0.490056,0.478616,0.4671161,0.4556673,0.4443656,0.4332726,0.4224401,0.4119247,0.401768,0.3919792,0.3825565,0.3735137,0.364868,0.3566136,0.3487371,0.3412347,0.3340948,0.3273064,0.3208695,0.3147622,0.3089514,0.3034312,0.2982057,0.293263,0.2885798,0.2841574,0.2800127,0.2760925,0.2723185,0.2687,0.2652718,0.2620271,0.258938,0.2559715,0.2531089,0.2503585,0.2477314,0.2452124,0.2427925,0.2404703,0.2382239,0.2360507,0.2339696,0.2319857,0.2300946,0.2282763,0.2265058,0.2247885,0.2231323,0.2215398,0.2200269,0.2185806,0.2171669,0.2157873,0.2144437,0.2131127,0.2118216,0.2106045,0.20943,0.208271,0.2071548,0.2061039,0.2050831,0.2040699,0.2030736,0.2020958,0.2011606,0.2003088,0.1995064,0.1986947,0.1978916,0.1971203,0.1963914,0.195738,0.1951425,0.1945089,0.1938472,0.1932534,0.1926579,0.1919948,0.1913679,0.1908777,0.1905225,0.1901808,0.1897244,0.1892262,0.1888296,0.1884733,0.1880727,0.1877149,0.1874073,0.1870196,0.1865459,0.1861068,0.1857739,0.185571,0.1854717,0.1853505,0.1851169,0.1847841,0.1843755,0.1839732,0.1837054,0.1835178,0.1832535,0.1829639,0.182749,0.1825387,0.1823071,0.1820579,0.1817636,0.1815301,0.1814061,0.1812904,0.1811205,0.1808998,0.1806992,0.1805462,0.1803686,0.1801766,0.180061,0.1800258,0.1799895,0.1798771,0.179684,0.1794816,0.1793347,0.1792333,0.1791339,0.1790176,0.1788726,0.1787,0.1785157,0.1783359,0.1781718,0.1780141,0.1778404,0.1776458,0.1774438,0.1772089,0.1769316,0.1766473,0.1763726,0.1761315,0.1759493,0.1758063,0.1756641,0.1755374,0.1754409,0.1753448,0.1752405,0.1751495,0.1750778,0.1750311,0.1750235,0.1750454,0.1750839,0.1751249,0.175185,0.1752755,0.1753734,0.1754753,0.1756091,0.1757875,0.1759786,0.1761715,0.1763653,0.1765608,0.1767685,0.1770037,0.1772567,0.1774975,0.1777274,0.1779524,0.1781741,0.1783798,0.1785707,0.1787418,0.1788974,0.1790638,0.1792573,0.1794896,0.1797732,0.1801179,0.1805087,0.1809705,0.1815081,0.1821215,0.1828095,0.1835328,0.1842973,0.1851353,0.1860798,0.187119,0.1881841,0.1892813,0.190629,0.1922397,0.1939375,0.1957881,0.1978143,0.1999886,0.202448,0.2051477,0.2078146,0.2106146,0.2138478,0.2173053,0.2207806,0.2242583,0.2275295,0.2305491,0.2333793,0.2353956,0.236563,0.2384692,0.2413971,0.2439796,0.2462802,0.2497078,0.2539843,0.2581804,0.2622291,0.2667622,0.2719259,0.2772668,0.2826646,0.2883487,0.2944002,0.3006697,0.3070658,0.3136088,0.3203759,0.3273425,0.3344675,0.3416741,0.3489059,0.3560783,0.3628869,0.3694183,0.3760692,0.3827908,0.3898441,0.3979263,0.4069712,0.4166966,0.4270051,0.4374416,0.4474661,0.456513,0.4640471,0.4695443,0.472535,0.4722519,0.4685504,0.4633772,0.4575024,0.4500199,0.4416668,0.4341464,0.4286368,0.4252478,0.4232022,0.4219221,0.4213849,0.4221287,0.4243995,0.4276728,0.431431,0.4352578,0.4392214,0.4439319,0.4492674,0.4548971,0.4610433,0.4677021,0.474643,0.4817514,0.4884683,0.4939617,0.4975637,0.498586,0.4968778,0.4933903,0.4889456,0.4839296,0.4789859,0.4745489,0.470802,0.4678967,0.4655949,0.4634874,0.4612784,0.4587681,0.4562045,0.4538812,0.4518113,0.45008,0.4486664,0.4474478,0.4463884,0.4454028,0.4442466,0.4426853,0.4407709,0.4386373,0.4361432,0.4332294,0.4300779,0.4266891,0.4229783,0.4190977,0.4151979,0.411268,0.4073107,0.4033288,0.3993886,0.3955844,0.3919452,0.388278,0.384389,0.3805389,0.3768196,0.3730402,0.3692208,0.3653432,0.3613905,0.3575927,0.3540343,0.350621,0.3473506,0.3441791,0.3411258,0.3382565,0.3355158,0.332869,0.3303156,0.3277991,0.3253162,0.3229071,0.3205146,0.3181217,0.3157622,0.3133888,0.3109571,0.3084933,0.3060587,0.3036786,0.3012851,0.2988597,0.2964903,0.294186,0.2919109,0.2896798,0.2874855,0.2852849,0.283075,0.2808746,0.2787168,0.2766349,0.2745766,0.2725177,0.2705024,0.2685671,0.2667161,0.2649244,0.2631907,0.2615219,0.2599243,0.2584165,0.2569954,0.2556363,0.2543314,0.2530765,0.2518755,0.2507387,0.2496494,0.2485916,0.2475699,0.2466011,0.2456936,0.2448486,0.244067,0.2433341,0.2426362,0.2419725,0.2413472,0.2407548,0.2401893,0.2396463,0.2391208,0.238609,0.2381114,0.237643,0.2372176,0.2368462,0.2365324,0.2362689,0.2360497,0.2358735,0.2357397,0.2356514,0.2356077,0.2355998,0.2356272,0.2356849,0.2357611,0.2358433,0.2359189,0.2359831,0.2360315,0.2360584,0.2360564,0.2360277,0.2359795,0.2359099,0.2358169,0.235712,0.2356028,0.2354799,0.2353302,0.2351415,0.2348982,0.2345685,0.2341043,0.2334654,0.2326398,0.2316421,0.2305101,0.2293016,0.228087,0.226946,0.2259425,0.2251097,0.2244546,0.2239616,0.223604,0.2233479,0.2231586,0.2229997,0.2228361,0.2226368,0.2223841,0.2220788,0.2217413,0.2214062,0.2211116,0.2208959,0.2207907,0.2208128,0.2209591,0.2212121,0.221547,0.2219403,0.2223633,0.2227727,0.2231252,0.2233708,0.2234499,0.2233102,0.2229236,0.2222934,0.2214606,0.2204944,0.2194748,0.2184777,0.2175615,0.2167723,0.2161365,0.2156617,0.2153455,0.2151754,0.2151274,0.2151674,0.2152584,0.2153645,0.2154507,0.2155006,0.2155289,0.2155677,0.2156537,0.2158122,0.2160529,0.2163755,0.2167805,0.2172717,0.2178519,0.2185255,0.2193089,0.2202258,0.2212938,0.2225238,0.2239083,0.2254197,0.2270145,0.2286276,0.2301732,0.2315561,0.2326877,0.2335065,0.2339991,0.2342101,0.2342411,0.2342275,0.2342975,0.2345432,0.2350261,0.2357814,0.2368217,0.2381468,0.2397425,0.2415871,0.2436579,0.2459237,0.2483245,0.2507735,0.2531788,0.2554641,0.2575827,0.2595271,0.2613363,0.2630804,0.2648495,0.266741,0.2688642,0.2713513,0.2743432,0.2779817,0.282416,0.2877569,0.2939849,0.3008847,0.3080161,0.3148169,0.32086,0.3261133,0.330984,0.3361755,0.3425111,0.350766,0.3615075,0.3749166,0.3906732,0.4079396,0.4254682,0.4418331,0.4557769,0.4665237,0.4738905,0.4782565,0.4805137,0.4819893,0.4842082,0.4885113,0.4957263,0.5061116,0.5195572,0.5358528,0.5548555,0.5765339,0.600947,0.6281987,0.6584577,0.6920393,0.7295265,0.7718669,0.8203568,0.8763439,0.9405667,1.012286,1.088722,1.165345,1.237402,1.30291,1.365714,1.434981,1.520414,1.627541,1.75602,1.900152,2.050101,2.193912,2.320772,2.425764,2.51212,2.587663,2.657659,2.722798,2.782788,2.836431,2.882926,2.920895,2.950385,2.971448,2.98375,2.991614,3.001345,3.013855,3.024998,3.035443,3.04337,3.039318,3.009147,2.941001,2.834551,2.699149,2.548684,2.398068,2.257948,2.132761,2.024492,1.934264,1.86245,1.808872,1.773204,1.754972,1.75366,1.768432,1.796815,1.834439,1.876885,1.921915,1.968671,2.016084,2.062888,2.107779,2.149464,2.186544,2.216582,2.234655,2.234792,2.212104,2.165488,2.098665,2.019763,1.939107,1.864788,1.800222,1.744816,1.696047,1.651191,1.608678,1.568141,1.530017,1.494918,1.46339,1.435862,1.412427,1.39267,1.375814,1.361244,1.348305,1.336408,1.325149,1.314291,1.303723,1.293264,1.282595,1.271314,1.259212,1.246132,1.232275,1.218619,1.206294,1.195583,1.186214,1.178219,1.17146,1.165173,1.158604,1.151683,1.144153,1.135016,1.124189,1.112873,1.100898,1.087294,1.073528,1.062087,1.052416,1.042404,1.032526,1.024347,1.017086,1.010074,1.003928,0.9983996,0.991817,0.9833893,0.9744443,0.9656492,0.9555666,0.9439126,0.9331177,0.9241719,0.9146419,0.9024414,0.8906682,0.8818086,0.8741012,0.8657034,0.8573411,0.8504207,0.8442727,0.8382807,0.8315693,0.8245677,0.8185616,0.8124464,0.8062675,0.8002561,0.793726,0.787487,0.7817895,0.7761727,0.7713594,0.7679365,0.7653554,0.7636366,0.7631801,0.7636688,0.7649689,0.7673958,0.7714751,0.7778614,0.7866515,0.7974505,0.8091654,0.8199517,0.828917,0.8361655,0.8421362,0.8469016,0.8502694,0.8525274,0.8540081,0.8543301,0.8528213,0.8497832,0.8465943,0.8435123,0.8399129,0.8360077,0.8325266,0.8302504,0.8294942,0.8298478,0.8305727,0.8320717,0.8349726,0.8385995,0.8422792,0.8455201,0.847677,0.8484151,0.8475343,0.8448269,0.8404189,0.8346852,0.8280149,0.8208908,0.8138775,0.807386,0.8013126,0.7955521,0.7903247,0.7856941,0.7817003,0.7784061,0.7757181,0.7735054,0.7716376,0.7698743,0.7680166,0.7659718,0.7637092,0.7612892,0.7588223,0.7563572,0.7538733,0.7513599,0.7487752,0.7461791,0.7437201,0.7415783,0.7399279,0.7388145,0.7382215,0.738121,0.7384636,0.7391572,0.7401282,0.7413113,0.7426403,0.7440943,0.7457274,0.7476725,0.7500968,0.7531319,0.7567727,0.7608694,0.7651519,0.7692606,0.7727802,0.7753057,0.7764827,0.7760572,0.7740561,0.7709875,0.7678145,0.7655011,0.7645615,0.7650064,0.766582,0.7689885,0.7719171,0.7750502,0.7781051,0.7809057,0.7833558,0.7853962,0.7870107,0.7882164,0.7890573,0.7896357,0.7900883,0.7904614,0.7906386,0.7903679,0.7893656,0.7873949,0.7843065,0.7800704,0.7748115,0.7688235,0.7625404,0.7564687,0.7510421,0.7465175,0.7429631,0.7403357,0.7385532,0.7375136,0.7371089,0.7372131,0.7376817,0.7384098,0.7393818,0.7406337,0.7422317,0.7443039,0.747041,0.7506664,0.7554333,0.7616522,0.7696708,0.7797702,0.7920443,0.8063616,0.8224467,0.840101,0.8594563,0.8810724,0.9057984,0.9344407,0.9672928,1.003683,1.041817,1.079118,1.11296,1.14134,1.163137,1.178221,1.187649,1.193649,1.199218,1.207648,1.222288,1.246363,1.282269,1.329961,1.384657,1.435112,1.464414,1.45603,1.405137,1.325145,1.239067,1.165206,1.111369,1.077466,1.059875,1.054067,1.05569,1.061377,1.069519,1.080046,1.092993,1.107211,1.120305,1.129592,1.13314,1.129989,1.119878,1.103497,1.083011,1.061626,1.042271,1.026605,1.014949,1.006847,1.001707,0.9991272,0.9989682,1.001291,1.006219,1.013867,1.024424,1.038193,1.055407,1.076061,1.099747,1.125626,1.152804,1.18088,1.210213,1.241855,1.277311,1.318184,1.365951,1.421938,1.487323,1.563198,1.650633,1.750758,1.864758,1.99386,2.138989,2.300561,2.478119,2.668238,2.864825,3.061985,3.250912,3.41441,3.537841,3.614828,3.650595,3.662596,3.668281,3.677587,3.682919,3.683728,3.686655,3.69092,3.696172,3.704316,3.712821,3.706643,3.677492,3.650295,3.656009,3.687003,3.71035,3.70305,3.68255,3.679338,3.690375,3.696165,3.689682,3.676234,3.666067,3.669981,3.680944,3.684243,3.675425,3.658791,3.648073,3.650716,3.658638,3.662221,3.669704,3.681793,3.682794,3.669519,3.652986,3.64693,3.65105,3.652599,3.650726,3.646836,3.637921,3.63387,3.635804,3.632249,3.629022,3.636452,3.640306,3.626218,3.616727,3.629728,3.646882,3.650472,3.649518,3.643962,3.626729,3.612839,3.606965,3.597593,3.584047,3.574146,3.573426,3.581548,3.591483,3.59448,3.589382,3.582568,3.577335,3.572486,3.57104,3.571553,3.571285,3.572991,3.569614,3.558721,3.552794,3.552755,3.549171,3.543487,3.537475,3.530501,3.525523,3.521654,3.521941,3.527675,3.527636,3.519346,3.509627,3.499939,3.49534,3.501353,3.506931,3.496106,3.483599,3.495254,3.512693,3.499884,3.471567,3.458021,3.456951
Bromoform Sample,2,0.1562568,0.1562205,0.1563195,0.1564061,0.1564441,0.156398,0.1562767,0.1562216,0.1562129,0.1560747,0.1558179,0.1556885,0.1557891,0.1558878,0.155824,0.1557775,0.155814,0.1557907,0.1557563,0.1557461,0.1556708,0.1555551,0.1554866,0.1555057,0.1555401,0.1554776,0.1553308,0.1551913,0.1551613,0.1552006,0.1551982,0.1552854,0.1555419,0.1557599,0.1557417,0.1556008,0.1555719,0.1556478,0.1557538,0.1558128,0.1557526,0.1556456,0.155549,0.1554775,0.1554437,0.1554566,0.1555569,0.1556242,0.1555482,0.1554913,0.1554462,0.1552502,0.1550312,0.1549067,0.1547957,0.1546975,0.154657,0.1546382,0.1545977,0.1545367,0.1544802,0.1544575,0.1545412,0.1546525,0.1545794,0.1543661,0.1541762,0.1541065,0.1541671,0.154143,0.1539428,0.1537846,0.1537771,0.1538387,0.1538804,0.1538138,0.1536673,0.1535517,0.1535075,0.1535283,0.1535315,0.1533847,0.1530891,0.1527971,0.1526189,0.1525725,0.1525658,0.1523995,0.1520367,0.1517253,0.1516415,0.151608,0.1514042,0.1510954,0.1508467,0.1507048,0.1506657,0.1506738,0.150615,0.1505001,0.1503859,0.1502182,0.1499548,0.1496477,0.1493729,0.1491171,0.1488381,0.1485942,0.1483154,0.1478405,0.1472748,0.1467861,0.1463684,0.1459999,0.1456586,0.1453373,0.1450819,0.1448699,0.1446793,0.144529,0.1443677,0.1442056,0.1440955,0.1440333,0.1440279,0.1440416,0.1440588,0.1440773,0.1440568,0.1440875,0.1441496,0.1440608,0.1438769,0.1437525,0.1436878,0.1436103,0.1434211,0.1431214,0.1428562,0.1426338,0.1423211,0.1419638,0.1416819,0.1414191,0.1410948,0.1407385,0.1403943,0.1400816,0.1397915,0.1394517,0.1390823,0.1387568,0.138395,0.1379632,0.1375176,0.1371044,0.1367655,0.1363865,0.135914,0.1354618,0.1350308,0.1346283,0.134315,0.1340577,0.1338118,0.1335115,0.1331303,0.1327966,0.1325391,0.1322701,0.1320546,0.1319256,0.1318376,0.1317854,0.1316961,0.1315805,0.131534,0.1315437,0.1315062,0.1313671,0.1312377,0.1311807,0.1310995,0.1310184,0.1310178,0.1310028,0.1309164,0.1308754,0.1309304,0.1310112,0.1310696,0.1311227,0.1311533,0.1311565,0.131198,0.1312578,0.1313027,0.1313782,0.1314301,0.1313864,0.1313505,0.1314136,0.1314851,0.1315422,0.1317174,0.1319328,0.1319914,0.1319715,0.1320139,0.1320945,0.1321521,0.1321804,0.132197,0.1322202,0.1323013,0.1324228,0.1325085,0.1325823,0.1326695,0.132711,0.1326959,0.1327071,0.1327915,0.1328866,0.1329434,0.1330062,0.1331114,0.1332118,0.1332597,0.1333034,0.1333865,0.1334777,0.1335835,0.1336957,0.133784,0.133882,0.1339839,0.1340699,0.1341545,0.134249,0.134378,0.1345175,0.1346538,0.1348073,0.1349542,0.1351049,0.1352803,0.1354445,0.1355721,0.1356897,0.1358406,0.1360176,0.1361957,0.1363683,0.1365107,0.1366007,0.1366511,0.1367171,0.1368294,0.1369517,0.1370572,0.1371353,0.1371925,0.1372851,0.1374259,0.1375315,0.1375511,0.1375623,0.1376396,0.1377393,0.1378526,0.1380325,0.1382337,0.138399,0.1385283,0.1386297,0.1387655,0.1389728,0.1391956,0.1393806,0.139516,0.139624,0.1397854,0.1400232,0.1402426,0.1404202,0.1405934,0.1407521,0.1408984,0.1410755,0.1413408,0.1416753,0.1419526,0.1421283,0.1423155,0.1425829,0.1428959,0.1432271,0.1435542,0.1438331,0.1440362,0.1442398,0.1445196,0.1448498,0.1452206,0.1455811,0.1458746,0.146197,0.1465966,0.1469876,0.1473087,0.1475804,0.1478761,0.1481817,0.1484508,0.1487703,0.1491545,0.1494236,0.1495124,0.1496186,0.1499138,0.1503054,0.1505696,0.1506886,0.1508387,0.1510562,0.1512634,0.15142,0.151516,0.1516057,0.1517727,0.1519915,0.1521707,0.1523055,0.1524392,0.1525271,0.1525149,0.1525263,0.1526536,0.1528312,0.1530418,0.1532086,0.153225,0.1532241,0.1534116,0.1537908,0.1542307,0.1545429,0.1546519,0.154682,0.1546732,0.1546154,0.1546292,0.1549198,0.1555074,0.1559635,0.1560232,0.1559877,0.156091,0.1562926,0.1566241,0.1571905,0.1577439,0.1580242,0.1583277,0.1586421,0.1586417,0.158774,0.1596447,0.1607425,0.1611922,0.1611743,0.1612833,0.1616734,0.1622075,0.1631397,0.1647528,0.165995,0.1661991,0.1660268,0.1656602,0.1652145,0.1651901,0.1657987,0.1672738,0.1690681,0.1695573,0.1689716,0.1691283,0.1699311,0.1704154,0.170869,0.1715358,0.1717792,0.171551,0.171315,0.1710826,0.1714077,0.1726342,0.1740212,0.1749637,0.1754274,0.1756534,0.17538,0.1749143,0.175472,0.1764085,0.1769161,0.1777332,0.1781468,0.1772495,0.1761736,0.1757769,0.1758783,0.1766961,0.1785169,0.1805213,0.181574,0.1813805,0.1803322,0.1794618,0.1792752,0.1791847,0.1792431,0.1800666,0.1814103,0.1821917,0.1817023,0.1808447,0.1810909,0.181996,0.181946,0.1810647,0.180918,0.1819575,0.1828227,0.1823131,0.180932,0.1798477,0.1795392,0.1797987,0.1800192,0.1795664,0.1786626,0.1783331,0.1791777,0.1801513,0.1796476,0.1782211,0.1776621,0.1781597,0.1781126,0.1768576,0.176117,0.1760999,0.1749965,0.173215,0.1721253,0.1716369,0.1712802,0.1704165,0.1688987,0.1675584,0.1667822,0.1663457,0.1659153,0.1651901,0.1644276,0.1642223,0.1643317,0.1638353,0.1627672,0.1619006,0.1613579,0.1607621,0.1600284,0.1596036,0.159868,0.1600819,0.1594844,0.1587613,0.1583714,0.1579479,0.1574179,0.1567592,0.156108,0.1557287,0.1556876,0.1559333,0.1563064,0.1568286,0.1572829,0.1569284,0.1558072,0.1551448,0.1554431,0.1555571,0.1551057,0.1552667,0.1559995,0.1562167,0.1556185,0.1545006,0.1535809,0.1532293,0.153229,0.1535602,0.1539335,0.1538985,0.1539524,0.1544263,0.1543653,0.1536102,0.153194,0.1531371,0.1527819,0.1523029,0.152366,0.1532757,0.1544728,0.1547139,0.1536598,0.1525117,0.1523174,0.1527499,0.1528223,0.1523718,0.1521364,0.1523224,0.1525861,0.1528194,0.1528266,0.1525754,0.152422,0.1523869,0.1522999,0.1522564,0.1523738,0.1524671,0.1523715,0.1523737,0.1525633,0.1526052,0.1525283,0.1526116,0.1527187,0.1526165,0.152455,0.1523803,0.1523258,0.1523113,0.1524348,0.1525769,0.1525114,0.1523588,0.1523703,0.1524746,0.1524959,0.1524395,0.1524052,0.1524197,0.152442,0.1525015,0.1526219,0.1526932,0.1526717,0.1526512,0.152654,0.1526525,0.1526664,0.1527004,0.1527183,0.1527011,0.1526992,0.1527559,0.1528168,0.1528352,0.1528328,0.1528397,0.1528686,0.1528895,0.1529018,0.1529517,0.1530103,0.153037,0.1530825,0.1531801,0.1532683,0.1533022,0.1533265,0.1533872,0.1534743,0.1535541,0.1536164,0.1536824,0.153754,0.1538316,0.1539377,0.1540489,0.1541377,0.1542256,0.1543187,0.1544005,0.1544792,0.1545737,0.1546833,0.1547911,0.1548951,0.1550104,0.1551299,0.1552292,0.1553102,0.1553906,0.1554964,0.1556363,0.1557694,0.1558791,0.1559965,0.1561328,0.1562747,0.156404,0.1564876,0.1565214,0.1565825,0.1567196,0.1568728,0.1569757,0.1570417,0.1571313,0.1572562,0.1573778,0.1574952,0.1576308,0.1577715,0.1579118,0.1580871,0.1583166,0.1585681,0.1587976,0.159,0.1591938,0.1593907,0.1595862,0.1597681,0.1599571,0.1601756,0.1603951,0.1605953,0.1607951,0.1610065,0.1612191,0.1614084,0.1615694,0.1617344,0.1619266,0.1621325,0.1623305,0.1625233,0.1627286,0.1629416,0.1631362,0.1633047,0.1634734,0.1636643,0.1638644,0.1640445,0.1641908,0.1643044,0.1644056,0.1645156,0.1646121,0.1646854,0.1647775,0.1648893,0.164967,0.1650056,0.1650604,0.1651412,0.1652,0.1652266,0.16526,0.1653283,0.1654281,0.1655425,0.1656561,0.1657623,0.1658611,0.1659445,0.1660184,0.1661124,0.166238,0.1663802,0.1665297,0.1666874,0.1668448,0.1670024,0.1671823,0.1673651,0.1675079,0.1676252,0.167748,0.1678743,0.1679862,0.1680704,0.168143,0.1682313,0.1683242,0.168405,0.1684877,0.1685652,0.1686305,0.168699,0.16876,0.1688043,0.1688417,0.1688621,0.1688638,0.1688792,0.1689256,0.1689645,0.1689505,0.1689008,0.1688604,0.1688241,0.1687671,0.1686828,0.1685787,0.1684775,0.1683827,0.1682711,0.1681311,0.1679875,0.1678617,0.1677307,0.167583,0.1674432,0.1673039,0.1671455,0.1669786,0.1667946,0.1665903,0.1664045,0.1662539,0.1661107,0.1659459,0.1657608,0.1655869,0.1654186,0.1652244,0.1650296,0.164854,0.1646805,0.1644966,0.1642896,0.1640651,0.1638304,0.1635986,0.1633947,0.1632075,0.1630122,0.1627969,0.1625713,0.1623661,0.1621777,0.1619789,0.1617753,0.1615871,0.161422,0.1612762,0.1611294,0.1609684,0.1608208,0.1607025,0.1605941,0.1604851,0.1603677,0.1602408,0.1601152,0.1599879,0.1598473,0.1597053,0.1595875,0.1594966,0.1594104,0.1593123,0.159203,0.1590795,0.1589446,0.158824,0.1587305,0.158646,0.1585597,0.1584903,0.1584544,0.1584304,0.1583927,0.1583594,0.1583367,0.1583077,0.1582944,0.1583141,0.1583413,0.1583437,0.1583103,0.1582649,0.1582272,0.1581671,0.1580665,0.1579672,0.1578943,0.157823,0.1577435,0.157678,0.157633,0.1575797,0.1574893,0.1573745,0.1572702,0.1571944,0.1571393,0.1570843,0.1570233,0.1569593,0.1568906,0.1568153,0.1567399,0.1566741,0.1566202,0.1565714,0.1565315,0.1565152,0.1565029,0.1564731,0.1564435,0.156427,0.1564143,0.1563995,0.1563933,0.1563986,0.1564003,0.1564027,0.1564201,0.156436,0.1564472,0.156468,0.1564721,0.1564557,0.1564673,0.1565045,0.1565166,0.1565047,0.1565072,0.1565356,0.1565768,0.1566096,0.1566245,0.1566394,0.1566718,0.1567147,0.1567531,0.1567831,0.1568062,0.1568381,0.1568982,0.1569658,0.1570174,0.1570708,0.1571303,0.1571825,0.1572413,0.1573173,0.1573977,0.1574736,0.1575509,0.1576364,0.1577281,0.1578311,0.1579507,0.1580671,0.1581852,0.1583279,0.1584565,0.1585688,0.1587123,0.1588472,0.1589455,0.1590637,0.1592197,0.1593612,0.1594734,0.1596106,0.159758,0.1598915,0.1600884,0.1603275,0.1604844,0.1606071,0.1608596,0.1611838,0.1614923,0.1619079,0.1623463,0.1626389,0.1629492,0.1634225,0.1639585,0.1644283,0.1648741,0.165406,0.1659763,0.1664915,0.1670154,0.1676427,0.1683265,0.1690162,0.1697381,0.1705245,0.1713757,0.1722837,0.173191,0.1740361,0.1750062,0.176197,0.177439,0.1787203,0.1800504,0.1813604,0.1826702,0.1840254,0.185441,0.1868935,0.1883546,0.1898308,0.191367,0.1929836,0.1946764,0.1964927,0.1984401,0.200475,0.2026526,0.2050531,0.2076606,0.2104412,0.2133716,0.2164533,0.2197227,0.2231412,0.2265946,0.2299971,0.2333471,0.2366837,0.2400059,0.2433059,0.2466048,0.2499559,0.2534569,0.2571392,0.2609343,0.2648193,0.2687958,0.2728523,0.2770365,0.2813861,0.2858754,0.2905114,0.2953612,0.3004568,0.305802,0.31137,0.3170515,0.3227043,0.328189,0.333368,0.3381169,0.342364,0.3461004,0.3493403,0.3521062,0.3544301,0.356332,0.357796,0.3587715,0.3591892,0.3590117,0.3582777,0.357096,0.3555928,0.3539088,0.3522137,0.3506724,0.3494096,0.3485097,0.34803,0.3479854,0.3483674,0.3491605,0.3503167,0.3517629,0.3534313,0.3552725,0.3572658,0.359446,0.361887,0.3646497,0.3677811,0.3713516,0.3754215,0.3799815,0.3849952,0.3904419,0.396271,0.4023767,0.4086454,0.4149949,0.4213551,0.4276302,0.4337235,0.4395794,0.4451768,0.4505132,0.4556043,0.4604834,0.465184,0.4697406,0.4741893,0.4785507,0.4828352,0.4870379,0.4911167,0.4950221,0.4987522,0.5023174,0.5057167,0.5090032,0.512283,0.5156454,0.5191464,0.5228369,0.5267563,0.5308902,0.5351978,0.539687,0.5443707,0.549196,0.5541061,0.5590887,0.5641049,0.5690668,0.5739029,0.5785405,0.5828866,0.5868619,0.5903828,0.5933486,0.5956739,0.5973414,0.5983526,0.5986577,0.5982261,0.5970725,0.5951917,0.5925703,0.5891933,0.5850053,0.5799791,0.5741338,0.5674618,0.5599505,0.5516465,0.5426352,0.5329787,0.5227273,0.5119858,0.5008989,0.4895737,0.478085,0.4665291,0.4550317,0.4436989,0.4325706,0.4216725,0.4110833,0.4008802,0.3910649,0.3816121,0.372534,0.3638521,0.3555582,0.3476389,0.3400951,0.3329228,0.3261144,0.3196582,0.3135202,0.307674,0.3021322,0.2969013,0.291952,0.2872564,0.2828238,0.2786599,0.2747064,0.2709042,0.2672744,0.2638446,0.260592,0.2574803,0.2544848,0.2516073,0.2488624,0.246242,0.2437102,0.241259,0.2389107,0.2366599,0.2344934,0.2324166,0.2304309,0.228527,0.2266841,0.2248883,0.2231591,0.2215021,0.2199086,0.2183913,0.21694,0.2155205,0.2141268,0.2127637,0.2114224,0.21013,0.2089087,0.2077287,0.2065711,0.2054636,0.20442,0.2033909,0.2023534,0.201336,0.2003541,0.1994267,0.1985779,0.1977707,0.1969534,0.1961474,0.1953763,0.1946442,0.1939793,0.1933687,0.1927278,0.1920673,0.1914696,0.1908636,0.1901996,0.1895847,0.1890987,0.1887331,0.1883822,0.1879225,0.187417,0.1870121,0.1866556,0.1862597,0.1859035,0.1855965,0.1852132,0.1847386,0.1842912,0.1839532,0.1837463,0.183641,0.1835194,0.1832909,0.1829606,0.1825486,0.1821439,0.1818804,0.1816941,0.1814203,0.1811231,0.1809107,0.1807037,0.180468,0.18021,0.1799116,0.1796803,0.1795579,0.1794381,0.1792598,0.179036,0.1788384,0.1786809,0.1784953,0.1783037,0.1781902,0.178153,0.1781124,0.1779981,0.1778104,0.1776118,0.1774607,0.177355,0.1772537,0.177132,0.1769739,0.1767893,0.1766085,0.1764392,0.1762758,0.1761069,0.1759196,0.1757202,0.1755195,0.1752843,0.1750116,0.1747346,0.1744587,0.1742091,0.1740188,0.1738715,0.1737266,0.1735979,0.1734988,0.1733955,0.173285,0.1731961,0.1731321,0.1730895,0.173073,0.1730775,0.1731039,0.1731481,0.1732187,0.1733078,0.173392,0.1734817,0.1736061,0.1737794,0.1739721,0.1741639,0.1743499,0.1745394,0.1747414,0.1749659,0.1752085,0.1754416,0.1756624,0.1758768,0.1760902,0.1762921,0.1764785,0.1766393,0.1767826,0.176941,0.1771286,0.1773481,0.177616,0.1779538,0.1783422,0.1787992,0.1793313,0.1799376,0.1806143,0.1813259,0.1820863,0.18293,0.1838793,0.1849139,0.1859708,0.1870703,0.1884284,0.1900437,0.19174,0.1935933,0.1956282,0.1978118,0.2002801,0.2029911,0.2056731,0.2084891,0.2117298,0.2151895,0.218673,0.2221607,0.2254355,0.228453,0.2312804,0.2332982,0.2344718,0.2363783,0.2393006,0.2418866,0.2441988,0.2476287,0.2519053,0.2561069,0.2601558,0.2646859,0.2698496,0.2751879,0.2805832,0.2862706,0.2923283,0.2986029,0.3050045,0.311556,0.3183332,0.3253106,0.3324405,0.3396421,0.3468708,0.354049,0.3608748,0.3674259,0.3740777,0.3807867,0.3878319,0.3959178,0.4049865,0.4147427,0.4250635,0.4354991,0.4455213,0.4545526,0.4620442,0.4674838,0.4704074,0.4700361,0.4662207,0.4609095,0.4548764,0.4472132,0.4386495,0.4309011,0.4251754,0.4215956,0.4193923,0.4180039,0.4174114,0.4181347,0.4203969,0.4236656,0.4274195,0.4312482,0.4352259,0.4399496,0.4453,0.450964,0.4571573,0.4638753,0.4708914,0.4780701,0.484852,0.4904181,0.4940836,0.4951454,0.4934567,0.4899659,0.4854878,0.4804131,0.4754062,0.4709226,0.4671471,0.4642196,0.4619034,0.4597975,0.4576127,0.4551615,0.452686,0.4504696,0.4485306,0.4469381,0.4456419,0.4445195,0.4435462,0.442637,0.4415492,0.440049,0.4381849,0.4360885,0.4336266,0.4307546,0.4276519,0.4243046,0.420628,0.4167703,0.412875,0.4089455,0.4049978,0.4010313,0.3971047,0.3933109,0.3896854,0.3860309,0.3821382,0.3782709,0.374536,0.3707443,0.3669085,0.3630106,0.3590386,0.355215,0.3516233,0.3481753,0.344862,0.3416391,0.3385353,0.335616,0.332822,0.3301228,0.3275186,0.3249499,0.32242,0.3199811,0.3175727,0.3151639,0.312789,0.3104124,0.307997,0.3055646,0.3031623,0.3008032,0.2984245,0.2960191,0.2936758,0.2914011,0.2891559,0.2869447,0.2847609,0.2825734,0.2803816,0.2781968,0.2760516,0.2739807,0.2719309,0.2698796,0.2678727,0.2659455,0.2640998,0.2623106,0.2605825,0.2589209,0.2573226,0.2558104,0.2543893,0.253035,0.251736,0.2504875,0.2492972,0.2481698,0.2470819,0.2460265,0.2450115,0.2440441,0.2431289,0.2422753,0.2414917,0.2407613,0.2400661,0.2394032,0.2387787,0.2381892,0.2376253,0.2370792,0.2365477,0.2360297,0.2355291,0.2350596,0.2346324,0.2342565,0.2339337,0.2336621,0.2334398,0.2332609,0.233123,0.2330305,0.232986,0.2329831,0.2330136,0.2330675,0.2331388,0.2332228,0.2333049,0.2333722,0.2334201,0.2334474,0.2334466,0.2334197,0.2333737,0.2333069,0.2332204,0.2331231,0.233017,0.2328936,0.2327456,0.2325626,0.2323246,0.2319953,0.2315302,0.230895,0.2300756,0.2290792,0.2279427,0.2267281,0.2255085,0.2243659,0.2233644,0.2225336,0.2218777,0.2213839,0.2210302,0.2207803,0.2205958,0.2204402,0.2202786,0.2200788,0.2198223,0.2195154,0.2191831,0.2188563,0.2185684,0.2183577,0.218257,0.2182839,0.2184367,0.2186952,0.219032,0.2194279,0.2198579,0.2202802,0.2206451,0.2208927,0.2209694,0.2208342,0.2204551,0.219827,0.2189943,0.2180316,0.2170173,0.2160256,0.2151183,0.214339,0.2137098,0.2132398,0.2129295,0.2127645,0.2127227,0.2127729,0.2128733,0.2129835,0.2130731,0.2131294,0.2131645,0.2132102,0.2133005,0.2134593,0.213701,0.2140286,0.2144412,0.2149422,0.2155355,0.2162208,0.2170071,0.2179248,0.2190055,0.2202566,0.2216579,0.2231792,0.2247803,0.2263985,0.2279514,0.2293469,0.2304939,0.2313253,0.2318253,0.2320428,0.2320822,0.2320734,0.2321423,0.2323893,0.2328831,0.2336538,0.2347045,0.2360344,0.2376354,0.2394913,0.2415768,0.2438531,0.2462624,0.2487269,0.2511531,0.2534534,0.2555793,0.2575305,0.2593502,0.2611059,0.2628831,0.2647837,0.2669231,0.2694269,0.2724324,0.2760884,0.2805445,0.2859093,0.2921675,0.299102,0.3062656,0.3130931,0.3191598,0.3244343,0.3293211,0.3345247,0.3408737,0.3491496,0.3599219,0.3733674,0.3891607,0.4064644,0.424028,0.440414,0.4543497,0.4650478,0.472331,0.4766024,0.4787607,0.4801229,0.4822187,0.486398,0.4934815,0.5037159,0.5169827,0.5330611,0.5517969,0.5731568,0.5971976,0.6240268,0.6538269,0.6869341,0.7239711,0.7659172,0.814073,0.8697845,0.9337758,1.005345,1.081859,1.158957,1.231977,1.298893,1.363367,1.434385,1.521571,1.630393,1.760394,1.905871,2.057242,2.202859,2.331741,2.438486,2.525937,2.601661,2.671861,2.738008,2.798903,2.853631,2.902682,2.943482,2.973555,2.993307,3.00597,3.016317,3.025935,3.035852,3.046886,3.058547,3.065337,3.058523,3.026567,2.958673,2.85164,2.713149,2.559864,2.407594,2.266072,2.140015,2.031481,1.940994,1.868762,1.814836,1.778969,1.760719,1.75964,1.774747,1.803338,1.84109,1.883692,1.928881,1.975929,2.023918,2.07118,2.116148,2.157838,2.194806,2.224616,2.242862,2.243565,2.221198,2.174212,2.106505,2.026855,1.945794,1.871096,1.806126,1.750374,1.701218,1.655858,1.61287,1.572043,1.533751,1.498512,1.46687,1.439202,1.41558,1.395674,1.378744,1.364093,1.35102,1.338997,1.32766,1.316734,1.306077,1.295555,1.284838,1.27345,1.261208,1.248056,1.234196,1.220499,1.208071,1.197265,1.187837,1.179793,1.172985,1.166659,1.160052,1.153074,1.14549,1.136302,1.125406,1.114029,1.101994,1.088305,1.074454,1.062952,1.053232,1.043164,1.033231,1.024997,1.017672,1.010596,1.004399,0.9988155,0.9921544,0.9836442,0.9746335,0.9657773,0.9556242,0.943902,0.933041,0.9240274,0.9144179,0.9021037,0.8902109,0.8812587,0.8734773,0.8650123,0.8565808,0.8495762,0.8433331,0.8372413,0.8304201,0.8233094,0.8171996,0.8109726,0.8046741,0.7985445,0.7918959,0.7855355,0.7796946,0.773894,0.7688613,0.7651948,0.7623309,0.7602671,0.7593941,0.7593769,0.7600604,0.7616736,0.7646529,0.7696106,0.7766021,0.7851969,0.7944608,0.8029571,0.8100005,0.8157123,0.8204562,0.8241749,0.8266357,0.8282089,0.8292724,0.8294134,0.8279847,0.8253142,0.8227165,0.8203629,0.8175917,0.8145702,0.8119708,0.8105272,0.8105369,0.8116137,0.8131136,0.815389,0.8189587,0.8232141,0.827489,0.8312596,0.8338957,0.835051,0.8345158,0.832102,0.8279604,0.8224849,0.8160801,0.8092365,0.8025056,0.7962927,0.7905239,0.7851048,0.7802348,0.7759615,0.7723289,0.7694078,0.7670933,0.7652392,0.7637161,0.7622997,0.7607948,0.7590871,0.7571309,0.7549907,0.7527879,0.7505896,0.748371,0.7461002,0.7437349,0.7413452,0.7390922,0.7371514,0.7356817,0.7347322,0.7343009,0.7343637,0.7348655,0.7357162,0.7368439,0.738179,0.7396491,0.7412397,0.7430122,0.7451048,0.747682,0.7508569,0.754622,0.7588428,0.7632538,0.7674894,0.7711267,0.7737638,0.7750576,0.7747437,0.7728371,0.7698672,0.766809,0.7646134,0.76378,0.7643136,0.7659748,0.7684784,0.7715008,0.7747149,0.7778434,0.7807032,0.7831886,0.785245,0.7868555,0.7880323,0.7888335,0.7893771,0.7898008,0.7901441,0.7902814,0.7899612,0.7889078,0.7868895,0.7837608,0.7794989,0.7742153,0.768187,0.7618597,0.7557535,0.7502994,0.7457497,0.7421784,0.7395402,0.7377427,0.7366903,0.7362838,0.7363908,0.7368596,0.7375783,0.7385236,0.7397409,0.7413097,0.7433453,0.7460163,0.7495462,0.7542094,0.7603456,0.768316,0.7783964,0.7906865,0.8050565,0.8212225,0.838996,0.8585106,0.880307,0.9052268,0.9340888,0.9672039,1.003897,1.04234,1.079921,1.114001,1.142568,1.164495,1.179659,1.189101,1.195024,1.200473,1.208792,1.223379,1.247518,1.283606,1.331563,1.38655,1.437191,1.466464,1.457876,1.406698,1.326349,1.239846,1.16558,1.111481,1.07747,1.059861,1.054088,1.055784,1.061573,1.069839,1.08048,1.093491,1.10773,1.120827,1.130122,1.133672,1.130453,1.120205,1.103718,1.083208,1.061822,1.0424,1.026589,1.014804,1.006659,1.001541,0.9990002,0.998865,1.001184,1.006102,1.013756,1.024339,1.03816,1.055447,1.076174,1.099944,1.125924,1.153221,1.181431,1.210928,1.242795,1.278502,1.319577,1.367487,1.423657,1.489376,1.565756,1.65378,1.754396,1.868741,1.998447,2.144921,2.308257,2.487264,2.679248,2.879521,3.080636,3.271082,3.435651,3.562984,3.64392,3.680485,3.697679,3.713798,3.721489,3.712318,3.70955,3.720847,3.725533,3.721026,3.713979,3.702619,3.691985,3.68807,3.691318,3.701508,3.7075,3.701307,3.685684,3.67327,3.663112,3.649402,3.649381,3.661211,3.660046,3.646852,3.637535,3.637664,3.653046,3.672871,3.676071,3.66705,3.658569,3.653876,3.649618,3.643935,3.639213,3.637103,3.632638,3.626603,3.628509,3.637345,3.641989,3.631647,3.609422,3.591583,3.592566,3.603321,3.605918,3.606971,3.614816,3.619324,3.614689,3.606757,3.598927,3.594824,3.593054,3.592963,3.601812,3.620168,3.633898,3.626456,3.604777,3.593178,3.598576,3.605588,3.599943,3.585776,3.574207,3.571545,3.57669,3.581295,3.582303,3.583541,3.579446,3.565149,3.555414,3.561971,3.571819,3.566715,3.551723,3.540743,3.533802,3.527344,3.524157,3.527696,3.539981,3.553427,3.548861,3.527814,3.511684,3.504651,3.502414,3.503148,3.504936,3.505555,3.499317,3.488218,3.483371,3.494902,3.510281,3.499879,3.476872,3.468786
Bromoform Sample,3,0.1613725,0.1613588,0.1613249,0.1612972,0.161348,0.1614287,0.1614986,0.1615766,0.1615302,0.1613048,0.1610421,0.1609242,0.1609612,0.1609138,0.1607421,0.1606845,0.1607455,0.16078,0.1607815,0.1607194,0.1606545,0.1606997,0.1607581,0.1607742,0.1607383,0.1605901,0.1604124,0.1603266,0.1603478,0.1603558,0.1603258,0.160497,0.1608607,0.1610569,0.1609207,0.1607193,0.1607496,0.160918,0.1609691,0.1608443,0.160736,0.1607564,0.1607384,0.160638,0.1605929,0.160614,0.1606606,0.1606926,0.1606604,0.1605737,0.1604386,0.1603012,0.1602062,0.1600967,0.1599632,0.1598453,0.1597772,0.1598073,0.1598867,0.1598656,0.1597047,0.1595722,0.1596074,0.1597064,0.1596967,0.159555,0.1593817,0.1593004,0.1593422,0.1593777,0.1593233,0.1592749,0.1592711,0.1592517,0.1591789,0.1590409,0.1589349,0.1589049,0.1588969,0.1589134,0.1588394,0.1585897,0.1583409,0.1582,0.1580689,0.1579473,0.1578867,0.1577426,0.1573867,0.1569846,0.1567641,0.1566702,0.1565592,0.1564385,0.1563152,0.156184,0.1560937,0.1560467,0.1559745,0.1558384,0.15566,0.1554553,0.155209,0.1549038,0.1545996,0.1544001,0.1542767,0.1540882,0.1537273,0.1532553,0.1528445,0.1524727,0.1520226,0.1515563,0.1511171,0.1507043,0.1504542,0.1503968,0.1503701,0.1502576,0.1500521,0.1498711,0.1497759,0.1496822,0.1496247,0.149673,0.1497263,0.1496693,0.1496028,0.1496993,0.149797,0.1496569,0.149461,0.1494601,0.1495185,0.1494168,0.1491284,0.1487021,0.1482953,0.1480546,0.1478983,0.1477132,0.1474629,0.1471171,0.1467219,0.1463429,0.1460169,0.1457789,0.1455673,0.145266,0.144898,0.1445616,0.1442101,0.1437745,0.1432917,0.142827,0.1424643,0.1421485,0.1417218,0.1412151,0.1407683,0.1404285,0.1401342,0.1397945,0.1394123,0.1390391,0.1387184,0.1385024,0.1383075,0.1380358,0.1377914,0.1376248,0.1374896,0.1373747,0.1372401,0.1371588,0.1372039,0.1372557,0.1372176,0.1370891,0.1369404,0.1368562,0.1368191,0.1367953,0.1367763,0.136737,0.1366876,0.1366799,0.1366907,0.1366853,0.136717,0.1367674,0.1367793,0.1368116,0.1368904,0.1369529,0.1370029,0.1370956,0.1371875,0.1371876,0.1371337,0.1371326,0.1372008,0.1373303,0.1374911,0.137567,0.137568,0.1376211,0.1377379,0.1378691,0.1379421,0.1379062,0.1378362,0.1378572,0.1380056,0.1381729,0.138258,0.1383097,0.1383855,0.138441,0.1384671,0.1385439,0.1386664,0.1387512,0.1388009,0.1388742,0.1389672,0.1390264,0.139048,0.1390832,0.1391715,0.1393223,0.1394831,0.1395471,0.1395492,0.1396257,0.1397637,0.1398671,0.1398893,0.1399032,0.1400243,0.1401986,0.1403774,0.1406226,0.1408761,0.1410451,0.1411795,0.1413304,0.1414481,0.1415122,0.1416024,0.14178,0.1420068,0.1422047,0.1423326,0.1424073,0.1424732,0.1425743,0.1427186,0.1428625,0.1429611,0.1430016,0.1430202,0.143077,0.1431795,0.1432758,0.143329,0.1433837,0.1435057,0.1436515,0.1437787,0.143924,0.1440646,0.1441793,0.1442961,0.1444216,0.1445797,0.1447512,0.1448931,0.1450545,0.1452304,0.1453589,0.1455059,0.1457074,0.1459045,0.1461201,0.1463813,0.1466161,0.1467646,0.1468893,0.1471034,0.1474017,0.1476722,0.1478821,0.1481025,0.1483609,0.1486539,0.1489928,0.1493524,0.1496799,0.1499371,0.1501758,0.1504469,0.1507343,0.1510756,0.1514638,0.1517972,0.1520609,0.1523528,0.1527298,0.1531003,0.1533848,0.1536499,0.1539427,0.1542385,0.1545677,0.154922,0.1551761,0.1553124,0.1554908,0.155798,0.1561339,0.1563596,0.1564981,0.1566851,0.1569422,0.1571634,0.1572806,0.1573482,0.1574603,0.1576385,0.1578178,0.1579528,0.1580687,0.158188,0.1582831,0.1583222,0.1583821,0.1585192,0.1586792,0.1588459,0.1589896,0.1590526,0.1590957,0.1592581,0.1595851,0.1600042,0.1603536,0.1605256,0.1605846,0.1605586,0.160462,0.1604521,0.1607587,0.1613767,0.1618489,0.1619043,0.1618208,0.1618607,0.162051,0.1624194,0.1630349,0.1636325,0.1639404,0.164269,0.1646294,0.1646412,0.1646981,0.1654816,0.1665614,0.1670104,0.166954,0.1670546,0.1674742,0.1679956,0.1689131,0.1705773,0.1718875,0.172113,0.1719196,0.1715102,0.1710449,0.1710364,0.1716397,0.1731064,0.1749294,0.1754384,0.1748349,0.1749457,0.1757001,0.1761743,0.1766458,0.1773256,0.1775838,0.1773784,0.1771612,0.1769415,0.1772804,0.17852,0.1798952,0.1808075,0.1812721,0.1815321,0.1812693,0.1807649,0.1812486,0.182101,0.1825796,0.1834635,0.1839668,0.1831092,0.182034,0.1816247,0.181705,0.182482,0.1842567,0.1862569,0.1873346,0.1871512,0.1861194,0.1852833,0.1851168,0.1850328,0.1851147,0.1859676,0.1872893,0.1880129,0.1874956,0.1866284,0.1868735,0.1878085,0.1877889,0.1869168,0.1867642,0.1877638,0.1885927,0.1881138,0.1868041,0.1857707,0.1854637,0.1856872,0.1858917,0.1854559,0.1845305,0.1841453,0.184981,0.1860062,0.185586,0.1842038,0.1836025,0.1840511,0.183995,0.1827439,0.1820343,0.182066,0.1809896,0.1792096,0.1781083,0.1776125,0.1772607,0.1764219,0.1749658,0.1736853,0.1729177,0.1724519,0.1719938,0.1712803,0.1705437,0.1703225,0.170415,0.1699583,0.1689455,0.1680958,0.167527,0.1668979,0.16617,0.1657623,0.166012,0.1662101,0.1656216,0.1649151,0.1645233,0.1640898,0.1635836,0.1629671,0.162334,0.161969,0.1619491,0.1621979,0.1625766,0.1631084,0.1635342,0.1631305,0.1620002,0.1613691,0.1616907,0.1617962,0.1613246,0.1614945,0.1622591,0.1624993,0.1619136,0.1608071,0.1599076,0.159574,0.1595784,0.1599169,0.1603085,0.1602875,0.160327,0.160774,0.1607123,0.1599838,0.1596139,0.1595977,0.1592418,0.1587402,0.1587928,0.1596959,0.1608717,0.1610793,0.1599984,0.158847,0.1586726,0.1591325,0.1592339,0.1588245,0.1586359,0.1588493,0.1591089,0.1593161,0.1592854,0.1590008,0.1588495,0.1588527,0.1587975,0.1587524,0.158852,0.1589366,0.1588484,0.1588678,0.1590541,0.1590574,0.1589487,0.1590473,0.1592006,0.1591243,0.1589528,0.1588604,0.1588019,0.1588022,0.15895,0.1591122,0.1590643,0.158927,0.158941,0.1590354,0.1590429,0.1589822,0.1589442,0.1589423,0.1589696,0.1590375,0.1591244,0.1591668,0.1591627,0.1591824,0.1592091,0.1592012,0.1592043,0.1592281,0.1592299,0.1592254,0.159268,0.159355,0.1594133,0.1594087,0.1593857,0.1593857,0.1594066,0.1594142,0.1594255,0.1594791,0.1595355,0.1595808,0.1596554,0.1597473,0.1598106,0.1598463,0.1599026,0.159999,0.1601019,0.1601745,0.160221,0.1602818,0.1603537,0.1604145,0.1605029,0.1606317,0.1607565,0.1608529,0.1609211,0.1609751,0.1610449,0.1611332,0.1612277,0.1613428,0.1614754,0.1616049,0.1617233,0.1618153,0.1618907,0.1619816,0.1620969,0.1622423,0.1624051,0.1625362,0.1626255,0.1627189,0.1628418,0.1629743,0.1630801,0.163142,0.1632013,0.1633115,0.1634574,0.1635979,0.1637141,0.1638037,0.163877,0.1639413,0.1640331,0.1641912,0.1643747,0.1645435,0.1647344,0.1649677,0.1652116,0.1654334,0.1656273,0.1658203,0.1660297,0.1662274,0.1663938,0.1665729,0.1667977,0.1670246,0.1672218,0.167418,0.1676303,0.1678398,0.1680295,0.1682051,0.1683868,0.168582,0.1687898,0.1690111,0.1692342,0.1694459,0.1696441,0.1698262,0.1699952,0.1701714,0.1703677,0.1705636,0.1707229,0.1708444,0.1709519,0.1710565,0.1711655,0.1712772,0.1713812,0.1714738,0.1715471,0.1715973,0.1716513,0.1717377,0.1718301,0.1718865,0.1719304,0.171996,0.1720686,0.1721506,0.1722623,0.1723769,0.1724613,0.1725327,0.1726187,0.1727261,0.1728549,0.1729947,0.1731329,0.1732692,0.1734135,0.1735696,0.1737176,0.1738596,0.1740241,0.1741947,0.1743303,0.1744435,0.1745718,0.1747103,0.1748306,0.1749256,0.1750199,0.1751237,0.1752083,0.1752635,0.1753042,0.1753539,0.175429,0.1755055,0.1755666,0.1756189,0.175649,0.1756583,0.1756742,0.1757072,0.1757374,0.1757344,0.1757054,0.1756816,0.1756492,0.175584,0.1754951,0.1753986,0.1753094,0.1752338,0.1751429,0.1750071,0.174844,0.1746905,0.1745493,0.1744052,0.1742586,0.1741018,0.1739395,0.1737955,0.173649,0.1734799,0.1733132,0.1731528,0.1729888,0.1728251,0.172667,0.172517,0.172351,0.1721544,0.1719617,0.1717941,0.1716265,0.1714292,0.1712173,0.1710089,0.1707796,0.1705418,0.1703346,0.170142,0.1699297,0.1696995,0.1694917,0.1693314,0.1691813,0.168998,0.1687905,0.1686002,0.1684472,0.1683098,0.1681581,0.1679948,0.1678562,0.1677511,0.16765,0.1675405,0.1674266,0.1673113,0.1671893,0.1670565,0.1669222,0.1667926,0.1666707,0.1665665,0.1664734,0.1663806,0.1662865,0.1661715,0.1660346,0.1659156,0.1658296,0.1657548,0.1656798,0.1656136,0.1655755,0.1655585,0.165527,0.1654918,0.1654766,0.165464,0.1654614,0.1654949,0.165535,0.1655282,0.1654734,0.1654109,0.1653695,0.1653286,0.1652621,0.1651892,0.1651276,0.1650705,0.1650135,0.1649551,0.1648906,0.1648192,0.1647384,0.1646471,0.1645546,0.1644773,0.1644164,0.1643513,0.1642771,0.1642082,0.1641414,0.1640578,0.1639712,0.1639165,0.1638921,0.1638719,0.1638449,0.1638163,0.1637925,0.1637827,0.1637835,0.1637742,0.1637477,0.1637224,0.16372,0.1637344,0.1637464,0.1637595,0.1637823,0.1638004,0.1638146,0.1638477,0.1638787,0.1638746,0.1638644,0.1638794,0.1639012,0.1639101,0.163914,0.1639309,0.163964,0.1640064,0.1640452,0.1640697,0.1640938,0.1641308,0.1641691,0.1642086,0.164258,0.1643096,0.1643636,0.1644212,0.1644754,0.1645343,0.1645918,0.1646346,0.1646857,0.1647661,0.1648659,0.1649621,0.1650444,0.1651254,0.1652152,0.1653162,0.1654315,0.1655502,0.1656792,0.1658199,0.1659271,0.1660308,0.1661878,0.1663361,0.1664439,0.1665682,0.1667262,0.1668702,0.166989,0.1671396,0.1672992,0.167434,0.1676241,0.1678633,0.1680283,0.1681489,0.1683948,0.1687276,0.1690552,0.1694864,0.169919,0.1701855,0.170486,0.1709773,0.1715303,0.1719969,0.1724276,0.1729586,0.1735416,0.1740524,0.1745604,0.1751873,0.1758774,0.1765685,0.1772882,0.1780656,0.1789096,0.1798254,0.1807484,0.1815859,0.1825298,0.1837035,0.1849258,0.1861878,0.1875221,0.1888407,0.1901336,0.1914638,0.19287,0.1943196,0.1957755,0.1972421,0.1987685,0.2003892,0.2020967,0.2039226,0.2058634,0.2078702,0.2100063,0.2123767,0.2149698,0.2177286,0.2206218,0.2236616,0.2268855,0.2302588,0.2336782,0.2370448,0.2403369,0.2436118,0.2468936,0.2501699,0.2534478,0.25677,0.2602428,0.2639048,0.2676682,0.2715153,0.2754722,0.2795216,0.283689,0.2880027,0.2924547,0.2970668,0.3018835,0.3069216,0.312208,0.3177205,0.3233277,0.3288958,0.3343179,0.3394589,0.3441653,0.3483532,0.352029,0.355224,0.357959,0.3602501,0.3621216,0.3635686,0.3645248,0.3649198,0.3647374,0.3640147,0.3628538,0.3613878,0.3597518,0.3580965,0.3565823,0.35534,0.3544518,0.3539684,0.3539135,0.3543043,0.3551232,0.3562883,0.3577107,0.3593395,0.3611573,0.3631491,0.3653203,0.3677255,0.3704433,0.3735509,0.3771131,0.3811575,0.3856659,0.3906176,0.3960012,0.4017591,0.4077866,0.4139915,0.4202902,0.426592,0.4328082,0.4388516,0.444658,0.4502068,0.4555004,0.4605339,0.4653274,0.4699548,0.4744724,0.4788802,0.483189,0.4874191,0.4915601,0.4955803,0.4994359,0.5031092,0.5066125,0.5099624,0.5132092,0.5164612,0.5198114,0.523296,0.5269622,0.5308495,0.5349361,0.5391977,0.5436494,0.5482855,0.5530642,0.5579479,0.5628975,0.5678649,0.5727788,0.577557,0.5821222,0.5863962,0.5903058,0.5937762,0.5967149,0.5990064,0.6006033,0.6015379,0.6018059,0.6013705,0.6002147,0.5983417,0.5957538,0.5924121,0.5882494,0.5832471,0.5774201,0.5707729,0.5633241,0.5551175,0.5461902,0.5365974,0.5264407,0.5158221,0.5048447,0.4936226,0.482265,0.4708718,0.4595293,0.4483278,0.4373457,0.4266206,0.4161834,0.4060971,0.3964049,0.3870916,0.3781445,0.3695706,0.3613666,0.3535404,0.3461064,0.3390471,0.3323324,0.3259452,0.3198746,0.3141135,0.3086609,0.303506,0.2986214,0.2939777,0.289587,0.2854761,0.2815874,0.2778414,0.2742612,0.2708792,0.2676703,0.2646047,0.2616556,0.258813,0.2560966,0.2535016,0.2509889,0.2485631,0.2462513,0.2440326,0.2418865,0.2398274,0.2378669,0.2359934,0.2341803,0.2324174,0.2307253,0.2291029,0.2275372,0.226038,0.2245948,0.2231848,0.2218162,0.2204881,0.2191723,0.2178917,0.2166793,0.2155128,0.2143709,0.2132725,0.2122343,0.2112241,0.2102174,0.2092182,0.2082324,0.2073005,0.2064689,0.2056891,0.2048902,0.204093,0.2033287,0.2026101,0.2019656,0.2013724,0.2007379,0.2000795,0.199491,0.1988985,0.1982454,0.1976381,0.1971575,0.1968003,0.196464,0.1960215,0.1955309,0.1951333,0.1947813,0.1943917,0.1940408,0.1937383,0.1933568,0.1928821,0.1924392,0.1921084,0.1919097,0.191815,0.1916984,0.1914697,0.1911433,0.1907373,0.1903362,0.1900757,0.1898936,0.1896281,0.1893426,0.189144,0.1889506,0.1887168,0.1884508,0.1881558,0.1879423,0.1878308,0.1877091,0.1875307,0.1873121,0.1871165,0.186961,0.1867855,0.1866098,0.1865089,0.1864734,0.1864301,0.1863201,0.1861371,0.1859363,0.1857835,0.1856773,0.1855752,0.1854626,0.1853246,0.185156,0.1849797,0.1848125,0.1846542,0.1844908,0.1843091,0.1841139,0.1839154,0.1836867,0.1834252,0.1831598,0.1828907,0.182641,0.1824508,0.1823108,0.1821786,0.1820582,0.1819643,0.1818734,0.1817745,0.1816874,0.1816252,0.1815887,0.1815763,0.1815824,0.1816139,0.1816619,0.1817321,0.1818275,0.1819271,0.1820307,0.1821623,0.1823406,0.1825383,0.1827342,0.182927,0.1831209,0.1833194,0.1835414,0.1837909,0.1840361,0.1842657,0.184487,0.1847123,0.1849274,0.1851221,0.1852899,0.1854441,0.1856185,0.1858226,0.1860555,0.1863307,0.1866712,0.1870636,0.1875257,0.1880599,0.1886683,0.1893565,0.1900815,0.1908452,0.1916875,0.1926381,0.1936789,0.1947345,0.1958183,0.197169,0.1987849,0.2004717,0.2023197,0.2043492,0.2065148,0.2089842,0.2117107,0.2143603,0.2171094,0.2203231,0.2237714,0.2272258,0.2306914,0.2339398,0.236946,0.2398005,0.2417787,0.2428054,0.2446936,0.2477582,0.2503681,0.2525542,0.2559687,0.2603269,0.2645357,0.268493,0.2729622,0.278147,0.2834767,0.2887872,0.2943929,0.3004125,0.30667,0.3130433,0.3195427,0.3262637,0.3331713,0.3402277,0.3473698,0.3545475,0.3617237,0.3684814,0.3748907,0.3815293,0.3881873,0.3950902,0.4031491,0.4121946,0.4218448,0.4320925,0.4424786,0.4523398,0.4611629,0.4685485,0.4739356,0.4768367,0.4764598,0.4726436,0.4674741,0.4617362,0.4543729,0.4460803,0.4386213,0.4332285,0.4299976,0.4280792,0.4268404,0.4262501,0.4269272,0.4291962,0.4325062,0.4362994,0.440111,0.4439966,0.4486911,0.4540647,0.4597011,0.4658814,0.4725787,0.4795163,0.486646,0.4933983,0.4989141,0.5025408,0.5035505,0.5017761,0.4982353,0.4937624,0.4886983,0.4836831,0.4791598,0.4753153,0.4723201,0.4699496,0.4678046,0.4655861,0.4630843,0.4605721,0.4583519,0.4564062,0.4547973,0.4534792,0.4523183,0.4513046,0.4503689,0.4492581,0.447726,0.4458242,0.443691,0.4411819,0.438259,0.4351326,0.4317791,0.4280857,0.4242189,0.420339,0.4164276,0.4124915,0.4085359,0.404616,0.4008256,0.3972094,0.3935634,0.3896633,0.3857904,0.3820629,0.3782834,0.3744745,0.3706052,0.3666378,0.3628256,0.3592782,0.3558878,0.3526314,0.3494561,0.3463911,0.3435139,0.3407684,0.3381257,0.3355822,0.3330663,0.3305785,0.3281712,0.3257792,0.323379,0.3210192,0.3186623,0.3162593,0.3138281,0.3114217,0.3090626,0.306685,0.3042767,0.3019326,0.2996589,0.2974109,0.2952027,0.2930333,0.2908604,0.2886758,0.2864932,0.2843513,0.2822911,0.2802555,0.2782149,0.2762179,0.274306,0.2724789,0.2707044,0.2689857,0.2673333,0.2657467,0.264246,0.2628334,0.2614893,0.2602077,0.2589749,0.2577886,0.2566564,0.2555627,0.2545095,0.2535041,0.2525468,0.2516419,0.2507949,0.2500118,0.249287,0.2486074,0.2479572,0.2473328,0.2467393,0.2461814,0.2456488,0.2451254,0.2446112,0.2441164,0.2436537,0.243235,0.2428707,0.242558,0.2422891,0.2420658,0.2418893,0.2417548,0.2416608,0.241612,0.2416094,0.2416467,0.2417049,0.2417729,0.2418536,0.2419375,0.2420092,0.2420594,0.2420854,0.242084,0.2420582,0.24201,0.2419362,0.241842,0.2417379,0.2416269,0.2415031,0.2413565,0.2411694,0.240923,0.2405877,0.2401185,0.2394776,0.2386557,0.2376645,0.2365347,0.2353285,0.2341234,0.2329961,0.2320097,0.2311939,0.2305448,0.2300491,0.2296915,0.229437,0.2292456,0.2290827,0.2289143,0.2287081,0.228449,0.2281438,0.2278132,0.2274858,0.2271957,0.2269803,0.2268745,0.2268996,0.2270465,0.2272903,0.2276121,0.2279987,0.2284234,0.22884,0.2291993,0.2294488,0.2295352,0.2294149,0.2290577,0.2284554,0.2276448,0.2267006,0.2257086,0.2247408,0.2238495,0.2230787,0.2224538,0.2219855,0.2216764,0.2215125,0.2214684,0.2215144,0.2216143,0.2217287,0.2218247,0.2218835,0.2219161,0.2219607,0.2220551,0.2222171,0.2224578,0.2227847,0.2231978,0.2236946,0.2242765,0.2249503,0.2257311,0.2266448,0.2277118,0.2289389,0.2303175,0.2318241,0.2334142,0.2350218,0.236564,0.2379474,0.2390879,0.2399277,0.2404468,0.2406811,0.2407324,0.2407367,0.2408199,0.2410757,0.2415662,0.2423255,0.243366,0.2446864,0.2462732,0.2481076,0.2501678,0.2524234,0.2548158,0.2572624,0.2596742,0.2619675,0.2640885,0.2660325,0.2678467,0.2696042,0.2713855,0.2732832,0.2754112,0.2778985,0.2808808,0.2845014,0.2889094,0.2942169,0.3004094,0.3072741,0.314375,0.3211502,0.327172,0.3324121,0.3372741,0.3424473,0.3487437,0.3569357,0.3675846,0.380861,0.3964444,0.4135101,0.4308268,0.4469729,0.4606851,0.4711878,0.4783145,0.4824657,0.4845465,0.4858861,0.4879894,0.4921588,0.4991865,0.509305,0.5223944,0.5382405,0.5566928,0.5777187,0.6013704,0.6277407,0.6570147,0.6895503,0.7259647,0.7672315,0.8146562,0.8695491,0.9326107,1.003184,1.078734,1.15502,1.227455,1.294064,1.358552,1.429771,1.517007,1.625487,1.754885,1.899792,2.050546,2.195272,2.323292,2.42938,2.51639,2.592242,2.662935,2.729791,2.791672,2.847211,2.895953,2.934948,2.964382,2.987255,3.003811,3.01379,3.02036,3.02863,3.038668,3.049197,3.055312,3.047975,3.015631,2.946494,2.836522,2.695978,2.543349,2.392946,2.252977,2.128016,2.020553,1.931347,1.860428,1.807557,1.77241,1.754759,1.754306,1.769843,1.798506,1.836152,1.878673,1.92382,1.970762,2.018557,2.065691,2.110582,2.152146,2.189056,2.218791,2.236483,2.23615,2.212923,2.165719,2.098402,2.019551,1.93946,1.865688,1.801485,1.746305,1.697583,1.652666,1.610141,1.569669,1.531647,1.496726,1.465452,1.438159,1.414855,1.395102,1.378184,1.363543,1.350518,1.338531,1.327209,1.316342,1.305793,1.295333,1.284635,1.273334,1.261245,1.248196,1.234373,1.220755,1.208482,1.197815,1.188447,1.18042,1.173617,1.167248,1.160543,1.153481,1.145876,1.136721,1.125914,1.114692,1.102818,1.089237,1.075466,1.064081,1.054495,1.044515,1.034644,1.026497,1.019232,1.012166,1.006003,1.000521,0.9939601,0.985501,0.976562,0.9678364,0.9578035,0.9461653,0.9354541,0.926681,0.9172779,0.905031,0.8931977,0.8844385,0.8768862,0.8685414,0.8601492,0.853227,0.8471084,0.8411546,0.8344334,0.8274028,0.821434,0.8153619,0.8092427,0.8033157,0.796818,0.7905907,0.7848979,0.7792345,0.7743748,0.7709525,0.7683588,0.7666003,0.7661113,0.7665551,0.7677986,0.7701422,0.7740958,0.7803413,0.7889463,0.799405,0.8105637,0.820679,0.8289583,0.8355613,0.8409355,0.8450524,0.8476257,0.8490655,0.8498606,0.8495841,0.8475173,0.8440596,0.8407441,0.8377632,0.8343381,0.8306224,0.8273304,0.8252568,0.824747,0.8253801,0.8263336,0.8280187,0.8311483,0.8350117,0.838895,0.8422907,0.8445368,0.8453593,0.8445857,0.8419765,0.8376684,0.8320634,0.8255443,0.8185815,0.8117437,0.8054517,0.7995927,0.7940496,0.7890564,0.7846709,0.7809168,0.7778572,0.7753752,0.7733297,0.771619,0.7700192,0.7683336,0.7664638,0.7643702,0.7621179,0.7598163,0.7575095,0.7551734,0.7527938,0.7503394,0.7478867,0.7455806,0.7435796,0.7420446,0.7410296,0.7405353,0.7405303,0.7409493,0.7417088,0.7427512,0.7440045,0.7453851,0.7468817,0.7485722,0.7505995,0.7531182,0.7562289,0.7599173,0.7640511,0.7683635,0.7724886,0.7760164,0.7785488,0.7797406,0.7793515,0.7774352,0.7745122,0.771505,0.76932,0.7684544,0.7689301,0.7705064,0.7728894,0.7757727,0.7788598,0.7818809,0.7846449,0.787041,0.7890063,0.7905328,0.7916519,0.7924087,0.7928993,0.7932721,0.7935808,0.7936953,0.7933645,0.7923146,0.7903206,0.7872455,0.7830513,0.7778464,0.7719335,0.7657607,0.7598136,0.7544945,0.7500572,0.7465754,0.7440037,0.742263,0.7412551,0.7408658,0.7409617,0.7414147,0.7421342,0.7430824,0.7442812,0.7458131,0.7478015,0.7504119,0.7538716,0.7584611,0.7645088,0.7723585,0.78228,0.7943831,0.8085686,0.8245712,0.842186,0.8615337,0.8831537,0.9078696,0.9364707,0.969265,1.005625,1.043779,1.081127,1.114985,1.143322,1.165055,1.180065,1.189357,1.195144,1.200441,1.208551,1.222854,1.246578,1.28204,1.329127,1.383129,1.43296,1.461906,1.453669,1.403433,1.32437,1.239229,1.166102,1.112728,1.07906,1.061563,1.055801,1.057479,1.063253,1.071492,1.082038,1.094862,1.108858,1.121749,1.130971,1.134599,1.131607,1.121757,1.105797,1.085828,1.064895,1.045836,1.030338,1.018801,1.010827,1.005815,1.003334,1.003258,1.005642,1.010578,1.018218,1.028774,1.042496,1.059628,1.080201,1.103805,1.129619,1.156766,1.184808,1.214092,1.245681,1.281058,1.321773,1.369239,1.424821,1.489848,1.565472,1.652667,1.75234,1.865622,1.994208,2.139613,2.302101,2.480619,2.673343,2.877342,3.085382,3.285968,3.460135,3.587668,3.663743,3.692875,3.694012,3.686689,3.680821,3.681572,3.694612,3.712296,3.726572,3.73919,3.742779,3.73313,3.723747,3.713845,3.698947,3.691401,3.689839,3.693423,3.705878,3.717386,3.712976,3.693959,3.677792,3.670886,3.673768,3.678322,3.669387,3.644076,3.625808,3.636012,3.65594,3.662461,3.659559,3.651127,3.639734,3.636411,3.638837,3.638236,3.631153,3.623584,3.63146,3.645693,3.644448,3.636156,3.63732,3.643601,3.64409,3.638256,3.632216,3.621129,3.602691,3.596975,3.60668,3.611005,3.601468,3.586357,3.577881,3.579243,3.586177,3.598981,3.610252,3.608723,3.602725,3.60122,3.606347,3.608945,3.590585,3.565652,3.563532,3.580415,3.593332,3.59721,3.595353,3.588512,3.583688,3.579534,3.566016,3.549877,3.54825,3.556073,3.559061,3.555959,3.550376,3.548025,3.550268,3.548432,3.541401,3.537116,3.53274,3.526165,3.521801,3.521107,3.523318,3.522026,3.510449,3.494521,3.484878,3.485462,3.492767,3.497664,3.499894,3.499007,3.490433,3.489782
Bromoform Sample,4,0.1620459,0.1620258,0.1619831,0.1620102,0.1621338,0.1621792,0.1621215,0.1621741,0.1622597,0.1621435,0.1618971,0.1617621,0.1617802,0.1618294,0.1618538,0.1618244,0.1616996,0.1615165,0.1614044,0.1613578,0.1612892,0.1612359,0.1611808,0.1611639,0.161272,0.1613291,0.1611905,0.1610297,0.1610585,0.1611671,0.1611736,0.1612431,0.16145,0.1615711,0.1615256,0.1614729,0.1615417,0.1616796,0.1617385,0.1615775,0.1613024,0.1611768,0.1611853,0.1611933,0.1611975,0.1611871,0.161199,0.1612438,0.1612616,0.1612697,0.1611894,0.1610071,0.1609141,0.1608686,0.1606919,0.1604701,0.1603744,0.1603483,0.1603132,0.1603229,0.1603225,0.1602746,0.1602928,0.1603131,0.1602033,0.1600699,0.1599851,0.1599149,0.1599179,0.159969,0.1599639,0.1599138,0.1598562,0.1598091,0.159754,0.1596157,0.1594549,0.1594038,0.1594382,0.1594812,0.1594494,0.159272,0.158996,0.1587165,0.1585069,0.1584339,0.1584242,0.1582584,0.1579382,0.1576964,0.15757,0.1574173,0.1572498,0.1571614,0.1571017,0.1569959,0.1568753,0.1567301,0.1565185,0.1563472,0.1562412,0.1560803,0.1558604,0.1555892,0.1552986,0.1550589,0.1548414,0.1546227,0.1543441,0.153935,0.1534479,0.1529544,0.1524775,0.1520365,0.1516439,0.1513411,0.1511532,0.1510073,0.150881,0.1507444,0.1504948,0.1502681,0.1502345,0.1502742,0.1502542,0.1502104,0.1502255,0.1502765,0.1503155,0.1503779,0.1503925,0.1502428,0.1500447,0.149963,0.149944,0.1498489,0.1496015,0.1492698,0.1490152,0.1488141,0.1485488,0.148275,0.1480482,0.1477727,0.1474284,0.1471125,0.1468218,0.1465004,0.1461703,0.1458158,0.1454239,0.1450738,0.1447303,0.1443174,0.1438753,0.1434546,0.1430598,0.1426125,0.1421204,0.1417139,0.1413874,0.1410709,0.1407377,0.1403576,0.1399603,0.1396168,0.1393629,0.1391968,0.1390173,0.1387412,0.1384814,0.1383005,0.1381408,0.1379981,0.1378551,0.1377476,0.1377475,0.1378139,0.1378071,0.1376433,0.1374713,0.1374174,0.1373764,0.1372831,0.1371944,0.1371239,0.1370494,0.1370511,0.1371734,0.1373119,0.1374061,0.1374605,0.1374538,0.1374152,0.1374079,0.1374491,0.1375455,0.1376707,0.1377385,0.1377457,0.1377739,0.1378076,0.1378081,0.137865,0.138049,0.1382223,0.1382699,0.138313,0.1384036,0.1384706,0.1385063,0.1385352,0.1385629,0.1385712,0.1386001,0.1387153,0.1388874,0.1390517,0.139178,0.1392145,0.1391343,0.1390905,0.1391993,0.1393397,0.1394162,0.1394711,0.1395191,0.1395526,0.1396043,0.1396821,0.1397728,0.1398926,0.1400177,0.1400588,0.1400521,0.1401364,0.1403152,0.1405066,0.1406411,0.140721,0.1408273,0.140958,0.1410625,0.1411502,0.1412588,0.1414229,0.1416441,0.1418476,0.1419535,0.1420106,0.1421203,0.1422909,0.1424772,0.14266,0.1428121,0.1429095,0.1429929,0.1431039,0.1432391,0.1433694,0.1434561,0.1434991,0.1435476,0.1436506,0.1438075,0.1439609,0.1440463,0.1441134,0.1442143,0.1442923,0.1443777,0.1445362,0.1447093,0.144854,0.1449829,0.1451109,0.1452723,0.1454299,0.1455434,0.1456811,0.1458415,0.1459728,0.1461226,0.1463194,0.1465475,0.1468001,0.1470483,0.1472562,0.1473999,0.1475469,0.1477913,0.1480829,0.1483114,0.1484972,0.1487398,0.1490128,0.1492795,0.1496346,0.1500602,0.1503935,0.1505971,0.1508132,0.1511052,0.1513958,0.151679,0.1519863,0.152314,0.1526652,0.1530245,0.153389,0.1537346,0.1540298,0.1543358,0.1546545,0.1549129,0.1551787,0.1555103,0.1557846,0.1559385,0.156119,0.1564529,0.1568494,0.157111,0.1572205,0.1573563,0.157594,0.1578359,0.1579776,0.1580496,0.158167,0.1583561,0.1585382,0.1586556,0.1587264,0.1587978,0.1588901,0.1589829,0.1591141,0.1592931,0.1594459,0.1595809,0.1596757,0.1596655,0.1596532,0.1598257,0.1602172,0.1607043,0.1610876,0.1612355,0.1612196,0.161155,0.1610997,0.1611368,0.1614527,0.1620574,0.1625029,0.1625636,0.162544,0.1626367,0.1628242,0.163169,0.1637723,0.1643666,0.1646638,0.16497,0.165305,0.1653337,0.165465,0.1662873,0.1673078,0.1677009,0.167679,0.167817,0.1682285,0.1687551,0.1696829,0.1713338,0.1726265,0.1728382,0.172645,0.1722766,0.1718395,0.171785,0.1723353,0.1738009,0.1756399,0.1761633,0.1755607,0.1756781,0.1764936,0.1770311,0.177514,0.1781822,0.1784156,0.1781808,0.1779527,0.1777284,0.1780336,0.1792021,0.1805197,0.1814357,0.1819437,0.1822528,0.1820393,0.1815904,0.1821348,0.1830223,0.1834798,0.1843158,0.1848003,0.1839387,0.1828362,0.1823978,0.1824708,0.1832397,0.1850058,0.1870393,0.1881671,0.1879734,0.1869013,0.1860902,0.1859784,0.1858615,0.1858397,0.1866609,0.1880632,0.18886,0.1883406,0.1874685,0.1877476,0.188693,0.1886394,0.1877409,0.1875771,0.1885775,0.1894175,0.1889237,0.1875754,0.1865235,0.1862342,0.186475,0.1866687,0.1862364,0.185374,0.1850556,0.185891,0.1868961,0.1864652,0.1850264,0.1843474,0.1847971,0.1848144,0.1835936,0.1828514,0.1828663,0.1817791,0.1799665,0.1788573,0.1783842,0.1780419,0.1771977,0.1757353,0.1744548,0.17369,0.1732155,0.1727453,0.1720087,0.1712369,0.1710078,0.1711118,0.1706424,0.169608,0.168764,0.1682304,0.1676515,0.1669469,0.1665218,0.1667549,0.1669562,0.1663958,0.1657292,0.1653468,0.1648926,0.1643602,0.1637322,0.1631127,0.1627526,0.1627323,0.1630079,0.1633919,0.1638973,0.1643285,0.1639424,0.1627817,0.1621066,0.1624307,0.1625712,0.1621119,0.1622416,0.1629569,0.1631882,0.1626115,0.1615106,0.1606187,0.1602761,0.160248,0.1605639,0.1609642,0.1609664,0.1610167,0.1614512,0.1613813,0.1606782,0.1603182,0.1602574,0.1598658,0.1593801,0.1594474,0.1603333,0.1615029,0.1617335,0.1606767,0.1595382,0.1593699,0.1598267,0.1599148,0.1594769,0.1592426,0.1594239,0.1596962,0.1599455,0.1599578,0.1596956,0.1595307,0.1594998,0.1594398,0.1594293,0.1595467,0.1596094,0.1595008,0.1595171,0.1596992,0.1597079,0.1596245,0.1597346,0.1598678,0.1597631,0.1595656,0.1594483,0.1593866,0.1594181,0.1595937,0.1597517,0.1597014,0.1595817,0.1596015,0.1596743,0.1596587,0.1596071,0.1596004,0.159607,0.1596158,0.1596864,0.1597909,0.1598141,0.1597867,0.1598224,0.1598615,0.1598326,0.1598224,0.1598774,0.159925,0.1599302,0.1599375,0.1599776,0.1600211,0.1600298,0.1600125,0.1600163,0.1600638,0.1601002,0.1601149,0.1601677,0.1602331,0.1602769,0.1603331,0.1604,0.1604487,0.1604843,0.160542,0.1606434,0.1607521,0.1608265,0.1608891,0.1609665,0.1610424,0.1611159,0.1612148,0.1613327,0.1614402,0.1615284,0.161597,0.1616549,0.1617316,0.1618271,0.1619098,0.1620087,0.1621691,0.1623445,0.162469,0.1625364,0.1625827,0.1626603,0.1627937,0.162941,0.1630586,0.1631596,0.1632643,0.1633802,0.1635072,0.1636319,0.1637457,0.1638428,0.163936,0.1640554,0.1641993,0.1643267,0.1644144,0.164493,0.1645932,0.1647105,0.1648399,0.1649708,0.1650961,0.1652464,0.1654403,0.1656574,0.1658802,0.1660899,0.1662875,0.1664983,0.1667251,0.1669409,0.1671266,0.1673207,0.1675518,0.1677654,0.1679471,0.1681494,0.1683672,0.1685684,0.1687641,0.1689521,0.1691179,0.1692855,0.1694749,0.1696845,0.1699152,0.1701548,0.1703724,0.1705471,0.1707042,0.1708924,0.1711061,0.1713106,0.1714943,0.1716506,0.1717636,0.1718381,0.1719105,0.1720089,0.172126,0.1722287,0.1722969,0.1723425,0.1723788,0.1724287,0.1725061,0.172593,0.1726769,0.1727509,0.1728149,0.1728992,0.1730119,0.1731221,0.1732243,0.1733181,0.1733945,0.1734814,0.1736022,0.1737445,0.173898,0.1740581,0.1742147,0.1743645,0.174518,0.1746799,0.1748408,0.1749991,0.175143,0.1752597,0.175378,0.1755086,0.1756098,0.1756803,0.1757748,0.175891,0.1759837,0.1760554,0.1761198,0.1761896,0.1762738,0.1763428,0.1763841,0.1764162,0.1764495,0.1764968,0.1765452,0.1765676,0.176563,0.1765298,0.1764873,0.1764654,0.1764286,0.176356,0.1762795,0.176206,0.1761279,0.1760396,0.1759237,0.1757814,0.1756412,0.1755141,0.175383,0.1752455,0.1751011,0.1749343,0.1747668,0.1746192,0.1744554,0.1742716,0.1741116,0.1739698,0.1738117,0.1736402,0.1734768,0.1733265,0.1731631,0.172967,0.1727669,0.172584,0.1724055,0.1722218,0.1720242,0.1718056,0.1715621,0.1713191,0.1711223,0.1709438,0.170727,0.1704832,0.1702709,0.170122,0.1699849,0.1697951,0.1695722,0.1693796,0.1692351,0.1691058,0.1689692,0.1688256,0.1686811,0.1685505,0.1684436,0.1683407,0.1682159,0.1680819,0.1679578,0.1678403,0.1677188,0.1675969,0.1674852,0.1673813,0.1672748,0.1671655,0.1670666,0.1669723,0.1668596,0.1667439,0.166654,0.1665731,0.1664806,0.1663989,0.1663549,0.1663385,0.1663191,0.1662945,0.1662771,0.1662613,0.1662544,0.1662662,0.1662805,0.1662759,0.1662553,0.1662323,0.1661978,0.1661338,0.1660488,0.1659632,0.1658977,0.165848,0.1657855,0.1657193,0.1656761,0.1656315,0.1655443,0.16543,0.1653295,0.165251,0.1651884,0.1651329,0.1650723,0.1650063,0.1649373,0.1648588,0.1647743,0.164708,0.1646781,0.1646682,0.1646511,0.1646309,0.1646165,0.1646001,0.1645839,0.1645711,0.1645547,0.1645398,0.1645435,0.1645652,0.1645828,0.1645862,0.1645903,0.1646026,0.1646215,0.1646507,0.1646757,0.1646839,0.1646962,0.1647158,0.1647184,0.1647143,0.1647294,0.1647637,0.1648037,0.1648398,0.1648743,0.1649054,0.1649261,0.1649447,0.1649753,0.1650207,0.1650704,0.1651156,0.1651649,0.165217,0.165263,0.1653193,0.1653894,0.1654487,0.1654988,0.1655703,0.1656717,0.1657721,0.1658516,0.1659304,0.1660262,0.1661355,0.166256,0.1663821,0.1665176,0.1666637,0.1667836,0.1668939,0.1670422,0.1671799,0.1672794,0.1674039,0.1675786,0.1677403,0.1678611,0.1680057,0.1681616,0.1682875,0.1684651,0.1687045,0.16888,0.1690086,0.1692664,0.1696117,0.1699325,0.1703521,0.1707897,0.1710603,0.1713491,0.1718279,0.1723828,0.1728561,0.1732981,0.1738479,0.1744367,0.1749351,0.1754313,0.1760596,0.1767612,0.1774615,0.1781829,0.1789619,0.1798092,0.1807297,0.1816521,0.1824813,0.1834337,0.1846363,0.1858777,0.1871392,0.1884658,0.1897883,0.1911022,0.192448,0.1938486,0.1952816,0.1967294,0.1982067,0.1997387,0.2013422,0.2030388,0.2048746,0.2068269,0.2088345,0.2109633,0.2133236,0.2159108,0.2186785,0.2215877,0.2246292,0.2278531,0.2312404,0.2346775,0.2380636,0.2413787,0.2446733,0.2479735,0.2512729,0.2545844,0.2579526,0.2614713,0.2651669,0.2689597,0.2728393,0.2768242,0.2808947,0.285082,0.2894213,0.2939064,0.2985542,0.3034049,0.3084715,0.3137772,0.3193164,0.3249809,0.330619,0.3360863,0.3412513,0.3459934,0.3502287,0.3539332,0.357132,0.3598632,0.3621685,0.3640767,0.3655472,0.3665037,0.3669009,0.3667289,0.3660072,0.364823,0.3633274,0.3616763,0.3600091,0.3584791,0.3572334,0.3563558,0.3558865,0.3558506,0.3562555,0.3570728,0.3582326,0.3596645,0.3613199,0.3631591,0.3651545,0.3673348,0.369771,0.372529,0.3756755,0.3792643,0.3833167,0.387832,0.3928003,0.3982103,0.4040162,0.4101108,0.4163744,0.4227083,0.4290242,0.4352499,0.4413273,0.4471886,0.4527768,0.4580911,0.4631662,0.4680246,0.4726907,0.4772177,0.4816424,0.4859844,0.4902556,0.4944251,0.4984553,0.5023369,0.5060574,0.5095975,0.5129651,0.5162291,0.519505,0.5228844,0.526407,0.5300994,0.5339808,0.5380569,0.5423416,0.5468417,0.55152,0.556331,0.5612469,0.5662305,0.5712307,0.5761883,0.5810232,0.5856332,0.5899311,0.5938384,0.5972948,0.6002547,0.602608,0.604255,0.6051979,0.6054518,0.6050004,0.6038341,0.6019522,0.5993424,0.595981,0.5918307,0.5868356,0.5809644,0.5742562,0.5667577,0.5584968,0.5495225,0.5398955,0.529682,0.5189843,0.5079389,0.4966579,0.4852241,0.4737386,0.4623241,0.4510758,0.4400334,0.4292251,0.4187073,0.4085527,0.3987907,0.3894003,0.3803893,0.3717792,0.3635437,0.3556658,0.3481648,0.3410411,0.3342778,0.3278588,0.3217575,0.315955,0.3104567,0.305265,0.3003592,0.2957068,0.2913084,0.2871734,0.2832482,0.2794747,0.2758714,0.2724604,0.2692241,0.2661343,0.2631616,0.260299,0.2575652,0.2549608,0.2524548,0.2500362,0.2477105,0.2454626,0.2432926,0.241218,0.2392457,0.2373726,0.2355639,0.233788,0.2320714,0.2304316,0.2288538,0.2273419,0.2258913,0.2244728,0.2230879,0.2217479,0.220431,0.2191495,0.217933,0.2167559,0.2155955,0.2144852,0.2134415,0.2124181,0.2114008,0.21041,0.2094444,0.2085246,0.207686,0.206887,0.2060679,0.2052551,0.2044846,0.2037645,0.2031113,0.2025054,0.2018652,0.2012049,0.2006164,0.2000314,0.1993812,0.1987626,0.1982711,0.1979109,0.1975708,0.1971238,0.1966306,0.1962247,0.1958608,0.1954735,0.1951349,0.194835,0.1944492,0.1939756,0.1935364,0.1932042,0.1929988,0.1928969,0.1927782,0.1925504,0.192225,0.1918255,0.1914344,0.1911778,0.1909935,0.1907216,0.1904291,0.1902239,0.1900204,0.1897851,0.1895349,0.189246,0.1890161,0.1888929,0.188778,0.1886081,0.1883886,0.1881911,0.1880364,0.1878541,0.1876641,0.1875544,0.1875195,0.1874774,0.1873633,0.1871776,0.1869864,0.1868487,0.1867475,0.1866394,0.1865159,0.1863694,0.1861986,0.1860228,0.1858557,0.1856965,0.185529,0.185341,0.1851393,0.184937,0.1847079,0.1844443,0.1841747,0.1839073,0.1836635,0.1834733,0.1833252,0.1831826,0.1830554,0.1829612,0.1828755,0.1827823,0.1826947,0.1826218,0.1825713,0.1825545,0.1825635,0.1825927,0.182636,0.1827075,0.1828043,0.1828957,0.1829872,0.1831163,0.1832984,0.1834962,0.1836876,0.1838721,0.1840605,0.1842602,0.1844816,0.1847236,0.1849601,0.1851858,0.1854029,0.1856156,0.1858166,0.1860048,0.1861678,0.1863116,0.1864716,0.1866594,0.1868789,0.1871481,0.1874838,0.1878717,0.1883315,0.1888587,0.1894578,0.1901428,0.1908717,0.1916409,0.1924828,0.1934307,0.1944769,0.1955422,0.1966257,0.1979713,0.1995896,0.2012786,0.2031269,0.2051607,0.2073331,0.2098166,0.2125643,0.2152249,0.2179749,0.2211995,0.2246726,0.2281565,0.2316423,0.2348932,0.2379064,0.2407907,0.2427833,0.2437764,0.2456369,0.2487181,0.2513424,0.253507,0.2569092,0.2612885,0.2655185,0.2694684,0.2739223,0.2791131,0.2844684,0.289808,0.2954248,0.30144,0.3076969,0.3140745,0.3205878,0.3273434,0.3342951,0.3413911,0.3485598,0.355751,0.3629564,0.3697568,0.3761958,0.3828571,0.3895138,0.3963988,0.4044724,0.41355,0.4232174,0.4334804,0.4438976,0.4537891,0.4626267,0.4700164,0.475408,0.4783171,0.4779033,0.4739596,0.4686228,0.4627194,0.4551538,0.4465948,0.4388257,0.4331418,0.4296892,0.4276204,0.4262829,0.4256175,0.4262361,0.4284832,0.4318139,0.4356541,0.439498,0.443384,0.4480941,0.4535014,0.4591563,0.4653621,0.4720979,0.4790668,0.4862479,0.4930837,0.498678,0.5023679,0.5034269,0.5016715,0.4981264,0.4936446,0.4885714,0.4835511,0.4790329,0.4752064,0.4722372,0.4698911,0.4677823,0.4656258,0.4631933,0.4607409,0.458577,0.4566936,0.4551516,0.4539015,0.4528109,0.4518676,0.4510023,0.449956,0.4484675,0.4465963,0.4445074,0.4420552,0.4391806,0.4360874,0.4327568,0.4290755,0.4252145,0.4213474,0.4174568,0.413539,0.4095934,0.4056806,0.4018996,0.3982951,0.3946573,0.3907561,0.3868808,0.3831567,0.37938,0.3755629,0.3716724,0.3676789,0.3638361,0.360246,0.3568064,0.3535073,0.3502962,0.3471942,0.3442757,0.3414831,0.3387835,0.33618,0.3336141,0.3310881,0.3286524,0.3262432,0.3238364,0.3214762,0.3191206,0.3167204,0.3142956,0.3119091,0.3095843,0.307236,0.3048461,0.30252,0.3002617,0.2980232,0.2958266,0.2936694,0.2915066,0.289334,0.2871611,0.2850259,0.2829757,0.2809517,0.278917,0.276919,0.2750007,0.2731662,0.2713896,0.2696716,0.2680172,0.266431,0.2649362,0.2635289,0.2621826,0.2608904,0.2596493,0.2584662,0.257344,0.2562598,0.2552064,0.2541899,0.2532266,0.2523295,0.2514924,0.2507103,0.2499802,0.2492951,0.2486438,0.2480241,0.2474349,0.2468725,0.2463295,0.2457999,0.245284,0.2447872,0.2443228,0.2439029,0.2435319,0.2432048,0.242924,0.2426997,0.2425279,0.2423947,0.2422984,0.2422485,0.2422447,0.2422768,0.2423328,0.2424058,0.2424884,0.2425656,0.242631,0.2426834,0.2427147,0.2427134,0.2426872,0.2426469,0.2425841,0.2424961,0.2423971,0.2422912,0.2421686,0.2420212,0.2418364,0.2415951,0.2412643,0.2407978,0.2401595,0.239339,0.2383454,0.237212,0.2360016,0.2347914,0.2336618,0.2326745,0.2318546,0.2312021,0.2307062,0.2303505,0.230102,0.2299206,0.2297663,0.2296033,0.2294031,0.2291531,0.2288553,0.2285257,0.2281969,0.2279083,0.2276969,0.2275946,0.2276232,0.2277775,0.2280324,0.2283666,0.2287631,0.2291906,0.2296069,0.229969,0.2302221,0.2303097,0.2301848,0.2298153,0.2292028,0.2283893,0.2274431,0.2264461,0.225475,0.2245831,0.2238125,0.2231918,0.2227304,0.2224248,0.2222637,0.2222258,0.2222762,0.2223742,0.2224857,0.2225823,0.222645,0.2226822,0.222732,0.2228325,0.2230005,0.2232466,0.2235772,0.2239925,0.224494,0.2250818,0.2257597,0.2265472,0.2274697,0.2285453,0.2297851,0.2311799,0.2326996,0.2343004,0.235919,0.2374728,0.2388686,0.2400163,0.2408517,0.2413624,0.2415927,0.2416409,0.2416405,0.2417228,0.2419818,0.2424754,0.2432373,0.2442816,0.2456091,0.2472079,0.2490592,0.251137,0.253408,0.255815,0.2582757,0.2607005,0.2630042,0.2651328,0.2670837,0.2689039,0.2706626,0.2724425,0.2743424,0.2764809,0.2789847,0.2819831,0.2856224,0.2900587,0.2953986,0.3016214,0.3085199,0.3156587,0.3224705,0.3285241,0.3337879,0.3386654,0.3438556,0.3501809,0.3584175,0.3691285,0.3824855,0.3981666,0.4153393,0.432758,0.4489921,0.4627716,0.4733194,0.4804732,0.4846351,0.4866998,0.4879876,0.490025,0.4941438,0.5011405,0.5112401,0.5243152,0.5401508,0.5585996,0.5796191,0.603257,0.6296205,0.6588907,0.6914161,0.7278492,0.7692044,0.8167833,0.8718762,0.9351859,1.006074,1.082015,1.158793,1.231861,1.299201,1.364401,1.436282,1.524231,1.633536,1.763733,1.909282,2.060635,2.205819,2.333996,2.440747,2.529313,2.606538,2.677798,2.744425,2.805477,2.860218,2.908988,2.948592,2.977358,2.997524,3.011238,3.021179,3.030866,3.04201,3.052891,3.064358,3.072965,3.067681,3.034699,2.963611,2.853004,2.712431,2.558674,2.406542,2.2653,2.139614,2.031616,1.941879,1.870447,1.817247,1.782032,1.764274,1.763513,1.778878,1.807671,1.845538,1.888262,1.933575,1.980579,2.028377,2.075566,2.120651,2.162464,2.19947,2.229193,2.24719,2.247603,2.22486,2.177309,2.109211,2.029554,1.948646,1.874218,1.809653,1.754315,1.705473,1.660352,1.617597,1.576954,1.538756,1.503612,1.472117,1.444627,1.421164,1.401296,1.384274,1.369541,1.356467,1.344439,1.333039,1.322079,1.311479,1.301025,1.290341,1.278988,1.266796,1.253668,1.239813,1.226158,1.213819,1.203062,1.193594,1.185499,1.178701,1.172397,1.165742,1.158676,1.151043,1.141845,1.130962,1.119664,1.107737,1.094087,1.080231,1.068791,1.059173,1.049142,1.03922,1.03105,1.023747,1.016594,1.010354,1.004849,0.9982756,0.9897568,0.9807295,0.9719245,0.9617964,0.9500327,0.9392023,0.9303526,0.920882,0.908533,0.8965988,0.8877529,0.8801137,0.8716863,0.8632277,0.8562399,0.8500316,0.8439784,0.8371498,0.8300069,0.8239499,0.8177962,0.811578,0.8055315,0.7988902,0.7925133,0.7866545,0.7807925,0.7757168,0.7720566,0.769158,0.7670259,0.7661321,0.7661061,0.7667409,0.7682359,0.7710364,0.7758011,0.782577,0.7908412,0.7996021,0.8075463,0.814099,0.8194101,0.8238432,0.8272382,0.8292396,0.8303319,0.8310736,0.8309969,0.8293503,0.8264936,0.823895,0.8217126,0.8191369,0.8162754,0.8138223,0.8125527,0.8127956,0.8141438,0.8158162,0.8181714,0.8218759,0.8262687,0.8306449,0.8345078,0.8371935,0.8383836,0.83791,0.8355656,0.831489,0.8260896,0.8197702,0.8130079,0.80638,0.8003219,0.7947252,0.7894567,0.7847329,0.7806111,0.7771291,0.7743585,0.7721899,0.7704697,0.769061,0.7677364,0.7663153,0.7647017,0.7628492,0.7608239,0.7587406,0.7566478,0.7545207,0.7523351,0.7500558,0.7477616,0.7456078,0.7437576,0.7423617,0.741468,0.7410899,0.7412079,0.7417563,0.7426468,0.7438148,0.7451903,0.7466978,0.7483206,0.7501281,0.7522608,0.7548729,0.7580814,0.7618905,0.7661603,0.7706008,0.774838,0.7784716,0.7811103,0.7824053,0.7821015,0.7802478,0.7773762,0.7744132,0.7722761,0.7714785,0.7720423,0.7737115,0.7761927,0.7791794,0.7823572,0.7854463,0.788254,0.7906864,0.792702,0.7942736,0.7954077,0.7961681,0.7966725,0.7970517,0.7973452,0.7974305,0.7970678,0.7959956,0.7939825,0.7908732,0.7866332,0.7813865,0.7754248,0.769172,0.7631252,0.7577186,0.7532176,0.7496995,0.7471107,0.7453532,0.7443275,0.743929,0.7440244,0.7444759,0.7451873,0.7461238,0.7473096,0.7488318,0.7508205,0.7534381,0.7569014,0.7614874,0.7675284,0.7753819,0.7853405,0.7975174,0.8117923,0.8279006,0.8456571,0.8651659,0.8869355,0.9118069,0.9405986,0.9736124,1.010199,1.048568,1.08611,1.120154,1.148658,1.170485,1.185516,1.194846,1.200701,1.206051,1.214242,1.228701,1.252616,1.288346,1.335837,1.390269,1.440418,1.469483,1.460987,1.410119,1.330342,1.244561,1.170912,1.117224,1.083458,1.06598,1.060267,1.061992,1.067812,1.076094,1.086688,1.099592,1.113703,1.126694,1.135939,1.139508,1.136411,1.126408,1.110202,1.089929,1.068746,1.049531,1.033934,1.022308,1.014238,1.009145,1.006608,1.006491,1.008855,1.013802,1.021475,1.032089,1.045893,1.063108,1.083779,1.107502,1.13342,1.160641,1.188754,1.218122,1.249853,1.28543,1.326343,1.374064,1.430031,1.495477,1.571478,1.658989,1.759011,1.872895,2.002201,2.148038,2.310973,2.490519,2.683823,2.887253,3.094431,3.290149,3.455468,3.577881,3.648214,3.679286,3.695038,3.699253,3.694728,3.685464,3.67772,3.683927,3.710684,3.733428,3.725178,3.701234,3.687794,3.690287,3.693768,3.686865,3.676501,3.676695,3.685554,3.686345,3.676444,3.673017,3.682917,3.686611,3.669986,3.654404,3.664215,3.683152,3.68641,3.685665,3.696504,3.703027,3.68875,3.664001,3.647249,3.649828,3.660249,3.660569,3.653214,3.65429,3.66512,3.667335,3.65803,3.651825,3.650945,3.647906,3.64659,3.648377,3.645856,3.638399,3.639026,3.648288,3.651675,3.651287,3.649744,3.639503,3.630871,3.631454,3.630837,3.627551,3.631643,3.635949,3.627413,3.615164,3.622837,3.645999,3.654944,3.643934,3.627481,3.612493,3.600563,3.590892,3.584733,3.589166,3.597333,3.599295,3.591558,3.573745,3.559908,3.55718,3.559368,3.561355,3.562109,3.565445,3.569156,3.565774,3.557364,3.553478,3.558563,3.5624,3.554626,3.546437,3.547804,3.552679,3.552393,3.542188,3.528073,3.51915,3.515998,3.510443,3.498446,3.490512,3.498925,3.512846
Bromoform Sample,5,0.1833237,0.1833327,0.1834422,0.1834898,0.1835226,0.1835592,0.1835709,0.1835894,0.1835077,0.1832393,0.1829466,0.1828569,0.1829495,0.1830003,0.1829357,0.182844,0.1827285,0.182635,0.1826716,0.1826674,0.1825083,0.1824199,0.1824862,0.1825915,0.1826687,0.1826953,0.1826504,0.1825742,0.182557,0.1825215,0.1824073,0.1824384,0.1826983,0.1828912,0.1827676,0.1825459,0.182575,0.1828006,0.1829176,0.1827437,0.1824502,0.1823066,0.1822925,0.1823237,0.1823557,0.1823021,0.1822668,0.1823234,0.182357,0.1823603,0.1822846,0.1820606,0.1818342,0.18167,0.1814834,0.1813557,0.1814018,0.1814911,0.1814709,0.181387,0.1812926,0.1811908,0.1811548,0.1811511,0.1810463,0.1809025,0.1808088,0.1807343,0.1806946,0.180663,0.1805944,0.1805541,0.1805307,0.1804388,0.1803187,0.1802161,0.1801386,0.1800899,0.1800087,0.179902,0.1798188,0.179702,0.179523,0.1793466,0.1791589,0.1789832,0.1789184,0.1788248,0.1785193,0.1781489,0.1779206,0.1777878,0.1776046,0.1773385,0.1770952,0.1769753,0.1769465,0.176924,0.1768591,0.1767845,0.1766964,0.1764936,0.1761802,0.1758626,0.175601,0.1753875,0.1751907,0.1749577,0.174571,0.1740052,0.1734209,0.1729397,0.1725251,0.1721212,0.1717587,0.1714785,0.1712326,0.1709889,0.17083,0.1707356,0.1705704,0.170429,0.1704171,0.1704016,0.1703297,0.1702862,0.1702858,0.1702408,0.170179,0.1702463,0.1703461,0.1702544,0.1700208,0.169869,0.1698355,0.1697375,0.1694547,0.1691008,0.1688416,0.1686404,0.168367,0.1680361,0.1677247,0.1674268,0.1671323,0.1668281,0.1664861,0.166153,0.1658479,0.1654725,0.165005,0.1645556,0.1641672,0.1637993,0.1634052,0.1629748,0.1625582,0.1621367,0.1616511,0.1611302,0.1606808,0.1603995,0.1601932,0.1598587,0.1593951,0.1589632,0.158646,0.1584298,0.1582388,0.1580146,0.1577914,0.1575805,0.1573984,0.1572722,0.1571319,0.1569807,0.1569346,0.1569881,0.1569652,0.1567938,0.1566319,0.1565251,0.1564044,0.1563466,0.1563608,0.1563082,0.1561754,0.1561137,0.1561764,0.1562672,0.1563521,0.1564345,0.1564516,0.1564128,0.1563894,0.1564023,0.1564755,0.1566011,0.1566953,0.1566988,0.1566702,0.1567139,0.1567829,0.1567899,0.1568311,0.1569424,0.1570154,0.1570747,0.1571825,0.1572899,0.1573262,0.1573059,0.1572952,0.1572989,0.1573468,0.1574619,0.1575933,0.1577319,0.1578571,0.1578857,0.1578189,0.1577947,0.1578899,0.1580429,0.1581656,0.1582052,0.1581842,0.1581711,0.1582103,0.1583095,0.158446,0.1585583,0.1586015,0.1585999,0.1586457,0.1587794,0.158909,0.1590134,0.1591296,0.1592253,0.1593101,0.1594013,0.159517,0.159697,0.1598997,0.1600406,0.160119,0.1602165,0.1603654,0.1605307,0.1606835,0.1608206,0.1609624,0.1610941,0.1611914,0.161293,0.1614033,0.1614864,0.1615745,0.1617119,0.1618544,0.1619261,0.1619696,0.1620626,0.1621715,0.1622556,0.1623003,0.162319,0.1623752,0.1624756,0.1625914,0.1627394,0.1628976,0.1630133,0.1631146,0.1632677,0.1634798,0.1636799,0.1638032,0.1638994,0.164026,0.1641679,0.1643435,0.1645469,0.1647335,0.1649193,0.165092,0.1652314,0.1653863,0.1655797,0.1658173,0.1661129,0.1663963,0.1666142,0.1668471,0.1671149,0.1673536,0.1676159,0.1679497,0.1682748,0.1685318,0.1687821,0.1690729,0.1693915,0.1697529,0.1701115,0.1703993,0.1706541,0.1709445,0.1712969,0.1716515,0.1719607,0.1722806,0.1725772,0.1728031,0.1730807,0.1734256,0.1736851,0.1738152,0.1739468,0.1742113,0.174553,0.1748033,0.174935,0.1750842,0.1753294,0.1755895,0.1757589,0.175842,0.1759374,0.1761278,0.1763382,0.1764411,0.176491,0.1766079,0.1767537,0.1768278,0.1768783,0.1769555,0.177045,0.1772071,0.1773917,0.1774432,0.1774186,0.1775456,0.1779038,0.178352,0.1786629,0.1787591,0.1787849,0.1787969,0.1787455,0.1787231,0.1789914,0.1796011,0.1800774,0.1801383,0.1801032,0.1802096,0.1804253,0.180762,0.1813039,0.1818624,0.182195,0.182527,0.1828468,0.1828429,0.1829243,0.1837299,0.1847962,0.1852278,0.1851886,0.1852885,0.1856838,0.1862221,0.1871771,0.1888358,0.1900894,0.19026,0.190081,0.1897363,0.1892654,0.1891613,0.1896963,0.1911703,0.1930182,0.1935184,0.1928872,0.1930059,0.1938129,0.1943241,0.1947793,0.1954147,0.1956363,0.1954158,0.1952084,0.1950178,0.1953582,0.1965419,0.197854,0.1987334,0.1991792,0.1994251,0.1991608,0.1986864,0.1992507,0.2002016,0.2007203,0.2015753,0.2020258,0.2011019,0.1999902,0.1996027,0.1996942,0.2004502,0.2022201,0.2042327,0.2053028,0.2050929,0.2040444,0.203212,0.2030524,0.2029473,0.2029818,0.2038022,0.2051351,0.2058846,0.2053787,0.2045273,0.2047772,0.2056996,0.2056868,0.2048253,0.2046536,0.2056131,0.2063892,0.2058835,0.2046147,0.2036372,0.203352,0.203569,0.2037501,0.2032988,0.2023764,0.201998,0.202808,0.2037692,0.2033156,0.201963,0.2014082,0.2018903,0.2018457,0.2005534,0.1997462,0.1997077,0.1986409,0.1968933,0.1958128,0.1953325,0.194977,0.1941248,0.1926569,0.1913594,0.1905749,0.1900996,0.1896433,0.1889153,0.1881462,0.1879207,0.1880092,0.1875073,0.1864637,0.18563,0.1850979,0.1845065,0.1837812,0.1833448,0.1836011,0.183843,0.1832791,0.1825732,0.182177,0.1817304,0.1812048,0.1805777,0.1799443,0.1795647,0.1795203,0.1797675,0.1801409,0.1806373,0.1810362,0.1806336,0.1795021,0.1788468,0.1791334,0.179232,0.1787872,0.1789641,0.1796929,0.1798909,0.1792887,0.178194,0.1773198,0.1769897,0.1769451,0.1772213,0.1775983,0.1775979,0.1776491,0.1780886,0.178017,0.1772905,0.1769121,0.1768725,0.1765123,0.1760202,0.1760623,0.1769421,0.1781134,0.1783324,0.1772614,0.1761039,0.1759006,0.176342,0.1764537,0.1760457,0.1758222,0.1759882,0.1762223,0.1764402,0.1764542,0.1762091,0.1760418,0.175989,0.175903,0.1758631,0.1759589,0.1760239,0.1759302,0.1759678,0.1761813,0.1762055,0.1760945,0.1761587,0.1762724,0.1761746,0.1759798,0.1758635,0.1758205,0.1758742,0.1760488,0.1761644,0.1760481,0.1759026,0.1759508,0.1760425,0.1760156,0.17595,0.1759265,0.1759225,0.1759401,0.1760206,0.1761342,0.1761701,0.1761252,0.1761109,0.1761333,0.1761445,0.1761702,0.1762169,0.1762258,0.1761871,0.1761744,0.1762199,0.1762713,0.1763012,0.1763176,0.1763154,0.1763141,0.1763185,0.1763244,0.1763753,0.1764524,0.1764839,0.1765094,0.1766062,0.1767218,0.1767742,0.1767933,0.1768418,0.1769233,0.1770092,0.177091,0.1771804,0.1772586,0.1773119,0.1773787,0.1774756,0.1775793,0.1776695,0.1777337,0.1777838,0.1778503,0.1779349,0.1780275,0.178147,0.1782944,0.1784379,0.1785543,0.1786354,0.1787094,0.1788135,0.1789415,0.179065,0.1791694,0.1792548,0.1793282,0.1794274,0.1795731,0.1797236,0.1798314,0.1798898,0.179949,0.1800556,0.1801876,0.1803017,0.180399,0.1805153,0.180636,0.1807178,0.1807951,0.1809179,0.1810647,0.1812259,0.1814159,0.1816229,0.1818452,0.1820754,0.1822935,0.1824961,0.1826892,0.1828821,0.1830672,0.1832537,0.1834656,0.1836756,0.1838592,0.1840475,0.1842514,0.1844462,0.1846239,0.1847977,0.184987,0.1851881,0.185382,0.1855738,0.1857796,0.1859936,0.186194,0.1863748,0.186558,0.1867677,0.1869863,0.1871735,0.187316,0.1874241,0.1875202,0.1876243,0.1877388,0.1878443,0.1879245,0.1879914,0.188062,0.1881292,0.1881835,0.1882414,0.188307,0.1883672,0.1884257,0.1884824,0.1885422,0.188629,0.1887553,0.188886,0.1889743,0.1890398,0.1891185,0.1892111,0.1893305,0.1894818,0.1896326,0.189769,0.1899137,0.1900788,0.1902438,0.1903939,0.1905389,0.1906875,0.1908352,0.1909721,0.1910891,0.1911881,0.191283,0.1913872,0.1914921,0.1915743,0.1916374,0.1917032,0.1917669,0.1918294,0.1919013,0.1919618,0.1920065,0.1920514,0.1920836,0.1920929,0.1920927,0.1921038,0.1921295,0.1921425,0.1921326,0.1921054,0.1920406,0.1919459,0.1918577,0.1917852,0.1917116,0.191621,0.1915072,0.1913645,0.191213,0.1910741,0.1909372,0.1908001,0.1906616,0.1905007,0.1903321,0.1901855,0.1900314,0.1898476,0.189671,0.1895129,0.1893456,0.1891661,0.1889935,0.1888311,0.1886549,0.1884625,0.1882748,0.188097,0.187931,0.1877492,0.1875256,0.1872953,0.1870736,0.1868469,0.1866347,0.1864409,0.1862335,0.1859991,0.1857653,0.1855671,0.1853996,0.1852231,0.1850216,0.1848219,0.1846482,0.1845012,0.1843629,0.1842129,0.1840748,0.1839686,0.1838661,0.1837549,0.1836401,0.1835071,0.1833509,0.1832031,0.183082,0.1829699,0.1828557,0.1827349,0.1826153,0.1825102,0.1824151,0.1823141,0.1822002,0.1820956,0.182017,0.1819336,0.181827,0.1817442,0.181718,0.1817013,0.1816634,0.1816349,0.1816151,0.1815873,0.1815769,0.1816064,0.1816522,0.181659,0.1816091,0.1815429,0.1814916,0.1814349,0.1813506,0.18126,0.1811913,0.181144,0.1810935,0.181027,0.1809604,0.1808911,0.1807933,0.1806789,0.1805821,0.1805099,0.1804508,0.1803921,0.1803245,0.1802459,0.1801707,0.1801079,0.1800471,0.1799892,0.1799481,0.1799204,0.1798928,0.1798663,0.1798379,0.179804,0.1797779,0.1797672,0.1797626,0.1797505,0.1797345,0.179735,0.1797569,0.1797829,0.1797964,0.1797912,0.1797885,0.179814,0.1798404,0.1798442,0.1798593,0.179892,0.1798958,0.1798692,0.1798594,0.1798801,0.1799195,0.1799652,0.1799997,0.1800237,0.1800486,0.180076,0.1801086,0.1801456,0.1801772,0.1802099,0.1802576,0.1803062,0.1803491,0.1804033,0.1804647,0.1805271,0.1806021,0.180685,0.180764,0.1808374,0.1809086,0.1809901,0.1810876,0.1811947,0.1813118,0.181429,0.1815507,0.1816936,0.1818164,0.1819261,0.1820732,0.1822038,0.1822943,0.1824098,0.1825725,0.1827244,0.1828328,0.1829614,0.1831102,0.1832447,0.1834416,0.1836935,0.1838619,0.1839714,0.1842042,0.1845213,0.1848355,0.1852718,0.1857171,0.1859846,0.1862779,0.1867639,0.1873114,0.1877623,0.1881795,0.1887075,0.18928,0.189777,0.1902837,0.1909159,0.1916043,0.1922873,0.1930046,0.1937906,0.1946422,0.1955574,0.1964714,0.1972941,0.1982387,0.1994293,0.2006624,0.2019278,0.2032559,0.2045659,0.2058608,0.2071954,0.2086072,0.2100608,0.2115046,0.2129481,0.2144537,0.2160528,0.2177409,0.2195588,0.2214968,0.2234889,0.2255981,0.2279489,0.2305415,0.2333026,0.236184,0.2392171,0.2424538,0.2458293,0.2492338,0.2525929,0.2558874,0.259174,0.2624793,0.2657793,0.2690793,0.2724313,0.2759394,0.2796311,0.2834183,0.2872854,0.2912543,0.2953131,0.2994899,0.3038155,0.3082873,0.3129148,0.317739,0.3227896,0.3280823,0.3336014,0.3392558,0.3448923,0.350343,0.3554753,0.3601815,0.3643989,0.3681224,0.3713508,0.3740919,0.3763947,0.3782855,0.3797207,0.3806546,0.3810615,0.3809033,0.3801819,0.379002,0.3775085,0.3758443,0.3741708,0.3726498,0.3714046,0.3705202,0.3700585,0.3700328,0.3704206,0.3712021,0.3723378,0.3737592,0.3754148,0.377265,0.3792613,0.3814274,0.3838495,0.3865843,0.3896837,0.3932285,0.3972767,0.4018207,0.4068132,0.4122179,0.4179962,0.4240665,0.4303181,0.4366383,0.4429404,0.4491533,0.4552064,0.4610382,0.4666011,0.4718893,0.4769275,0.4817424,0.4863888,0.4909217,0.4953359,0.4996491,0.5039143,0.5080974,0.5121286,0.5160015,0.5197192,0.5232601,0.5266379,0.5299126,0.5331607,0.5364733,0.5399418,0.5436274,0.5475323,0.5516297,0.555904,0.5603597,0.5650058,0.5698122,0.5747167,0.579677,0.5846581,0.5895823,0.5943793,0.598982,0.6032787,0.6071844,0.6106571,0.6136314,0.6159878,0.617636,0.618574,0.6188244,0.6183939,0.617261,0.6153893,0.6127761,0.6094263,0.6052812,0.6002781,0.5944313,0.5877817,0.5803372,0.5721169,0.5631865,0.5536014,0.5434057,0.5327152,0.5216976,0.5104561,0.499051,0.4875785,0.4761615,0.4649074,0.4538738,0.4430892,0.4325955,0.4224547,0.4127,0.4033229,0.3943287,0.3857276,0.3775054,0.3696532,0.3621726,0.3550595,0.3482983,0.3418701,0.3357652,0.3299787,0.3244989,0.319307,0.3143868,0.3097249,0.3053321,0.3012132,0.2973004,0.293532,0.2899349,0.2865342,0.2833033,0.2802089,0.2772343,0.2743806,0.2716592,0.269065,0.2665644,0.2641484,0.261833,0.2595993,0.257428,0.2553397,0.2533573,0.2514775,0.2496689,0.247904,0.2461943,0.2445513,0.2429729,0.2414644,0.240016,0.2386029,0.2372245,0.2358812,0.2345506,0.233259,0.2320422,0.230872,0.2297212,0.2286145,0.2275693,0.2265489,0.2255339,0.2245393,0.2235661,0.2226332,0.2217781,0.2209703,0.22016,0.2193697,0.2186152,0.2178919,0.2172321,0.2166319,0.2159984,0.215336,0.2147417,0.2141444,0.2134763,0.2128488,0.2123606,0.2120058,0.2116703,0.2112223,0.2107224,0.2103158,0.2099599,0.2095747,0.2092249,0.2089093,0.2085132,0.2080357,0.207599,0.2072761,0.2070801,0.2069783,0.2068471,0.2066035,0.2062698,0.2058693,0.2054799,0.2052235,0.205035,0.2047568,0.204458,0.2042464,0.2040423,0.2038063,0.2035448,0.2032507,0.2030301,0.2029117,0.2027881,0.2026082,0.202387,0.2021882,0.2020254,0.2018343,0.2016417,0.2015337,0.2015014,0.2014607,0.2013453,0.201158,0.2009602,0.2008086,0.2006983,0.2005909,0.2004738,0.2003306,0.2001519,0.199961,0.1997791,0.1996126,0.1994492,0.1992672,0.1990681,0.1988682,0.1986392,0.1983721,0.1980946,0.1978133,0.1975578,0.1973656,0.1972204,0.1970793,0.1969513,0.1968518,0.1967546,0.1966489,0.1965548,0.1964838,0.1964375,0.1964153,0.1964138,0.1964374,0.1964758,0.1965426,0.1966416,0.1967374,0.1968277,0.1969525,0.197131,0.1973209,0.1975013,0.1976823,0.1978716,0.1980688,0.1982837,0.1985171,0.1987458,0.1989657,0.1991776,0.1993858,0.1995834,0.1997695,0.199932,0.2000753,0.2002331,0.2004183,0.2006347,0.2009,0.2012324,0.2016132,0.2020586,0.202576,0.2031752,0.2038574,0.2045702,0.2053175,0.206146,0.2070922,0.2081418,0.2092012,0.2102669,0.2116015,0.2132204,0.2149086,0.2167504,0.2187741,0.2209365,0.2234147,0.2261506,0.2287795,0.2314951,0.2346978,0.2381494,0.2416173,0.2451051,0.2483567,0.2513619,0.2542361,0.2561918,0.25713,0.2589919,0.262109,0.264713,0.2668239,0.2702265,0.2746271,0.2788368,0.282739,0.2871721,0.2923661,0.2977005,0.3029982,0.308597,0.3146201,0.3208859,0.3272634,0.3337633,0.340496,0.3474155,0.3544818,0.3616327,0.3688111,0.3760113,0.3827746,0.3891653,0.3958304,0.4024559,0.409275,0.4173357,0.4263996,0.4360355,0.4463027,0.4567395,0.4666143,0.4754293,0.4828379,0.4882695,0.4912186,0.490822,0.4868729,0.4815596,0.4756901,0.4681056,0.4594879,0.4516628,0.445949,0.4424961,0.4404351,0.4390818,0.4383622,0.4389314,0.4411771,0.4445265,0.4483623,0.4521611,0.4559843,0.4606582,0.4660267,0.4716201,0.4777843,0.4844694,0.4913546,0.4984646,0.5052394,0.5107733,0.5144233,0.515452,0.5136693,0.5101239,0.5056699,0.5006347,0.4956473,0.4911416,0.4873095,0.4843384,0.4820076,0.4799183,0.4777734,0.4753594,0.4729435,0.470822,0.4689797,0.4674793,0.4662607,0.4651869,0.4642564,0.4634045,0.4623691,0.4608912,0.4590379,0.4569719,0.4545386,0.4516796,0.4486038,0.4452956,0.4416462,0.4378147,0.4339538,0.4300571,0.4261435,0.4222077,0.418302,0.4145357,0.4109551,0.4073321,0.4034347,0.3995729,0.3958688,0.392107,0.3883079,0.3844385,0.3804618,0.3766356,0.3730633,0.369641,0.3663581,0.3631568,0.3600621,0.357154,0.3543712,0.3516807,0.3490863,0.3465244,0.3439985,0.3415668,0.3391635,0.3367613,0.3344085,0.3320596,0.3296618,0.3272409,0.3248535,0.3225176,0.3201626,0.3177725,0.315443,0.3131815,0.3109452,0.3087512,0.3065945,0.3044286,0.3022499,0.300073,0.2979351,0.295879,0.2938474,0.2918094,0.2898136,0.2879004,0.2860702,0.2842947,0.282582,0.2809346,0.2793435,0.2778338,0.276415,0.2750686,0.2737823,0.2725407,0.2713521,0.2702282,0.269144,0.2680894,0.2670738,0.2661106,0.2652072,0.2643608,0.2635723,0.2628392,0.2621531,0.2614977,0.2608702,0.2602762,0.2597115,0.2591657,0.2586335,0.2581138,0.2576108,0.2571391,0.2567076,0.2563252,0.2559986,0.2557252,0.2555006,0.255319,0.2551748,0.2550719,0.2550159,0.2550041,0.2550319,0.2550858,0.2551546,0.2552342,0.2553126,0.255375,0.255415,0.2554334,0.2554294,0.2554059,0.2553617,0.2552889,0.2551929,0.2550871,0.2549749,0.254851,0.2547056,0.2545232,0.2542849,0.2539545,0.2534828,0.2528374,0.252012,0.2510142,0.2498758,0.2486632,0.2474529,0.2463201,0.2453274,0.2445047,0.2438503,0.2433503,0.242988,0.2427312,0.2425427,0.2423857,0.2422232,0.2420224,0.2417689,0.2414674,0.2411367,0.2408077,0.2405175,0.2403057,0.2402042,0.2402292,0.2403776,0.2406313,0.2409638,0.2413522,0.2417717,0.2421841,0.2425412,0.2427851,0.2428587,0.2427159,0.2423323,0.2417094,0.240885,0.23993,0.238926,0.2379474,0.2370504,0.2362749,0.2356453,0.2351769,0.2348727,0.2347143,0.2346717,0.2347151,0.2348101,0.2349192,0.2350113,0.2350704,0.2351039,0.2351433,0.2352294,0.2353867,0.2356242,0.2359488,0.2363634,0.2368624,0.2374418,0.2381121,0.2388948,0.239811,0.2408773,0.2421075,0.2434958,0.2450104,0.2465996,0.2482003,0.2497372,0.2511174,0.2522486,0.2530684,0.2535633,0.2537794,0.2538184,0.2538111,0.2538846,0.2541318,0.2546164,0.2553763,0.2564175,0.2577349,0.2593214,0.2611606,0.263226,0.2654866,0.2678854,0.2703328,0.2727334,0.2750101,0.2771183,0.2790543,0.2808585,0.2825989,0.2843635,0.2862509,0.2883715,0.2908543,0.2938372,0.297463,0.3018825,0.307208,0.3134193,0.320298,0.3274008,0.3341661,0.3401751,0.3453985,0.3502365,0.3553928,0.3616946,0.3699122,0.3806023,0.3939375,0.409593,0.4267301,0.4441067,0.4603021,0.4740524,0.4845745,0.4916964,0.4958227,0.497852,0.4990972,0.5010712,0.5051017,0.5119945,0.5219868,0.5349502,0.5506529,0.5689425,0.5897918,0.6132547,0.6394331,0.6685152,0.7008515,0.737079,0.7782058,0.825545,0.8804075,0.9435108,1.014207,1.089959,1.166565,1.239525,1.306813,1.371908,1.443589,1.531296,1.640313,1.770153,1.915207,2.065782,2.210026,2.337532,2.443714,2.531244,2.607477,2.678523,2.745541,2.807161,2.861211,2.906913,2.944724,2.976208,2.999521,3.013965,3.025034,3.036224,3.047307,3.05816,3.070387,3.078087,3.070261,3.035434,2.963633,2.854196,2.716724,2.565144,2.413263,2.271866,2.146443,2.038885,1.949369,1.87788,1.824526,1.789119,1.771136,1.770151,1.785293,1.813871,1.851464,1.893778,1.938703,1.985484,2.033002,2.079743,2.124588,2.166508,2.203487,2.232683,2.249881,2.249819,2.227528,2.181182,2.114206,2.035267,1.954735,1.880358,1.815713,1.76038,1.711649,1.666641,1.62397,1.583491,1.545542,1.510594,1.479214,1.451805,1.428419,1.408658,1.391782,1.37717,1.364166,1.352217,1.340924,1.33004,1.319457,1.309001,1.298359,1.287104,1.274999,1.26192,1.248101,1.234486,1.22219,1.211479,1.202061,1.194025,1.187296,1.181062,1.174486,1.167516,1.159968,1.150814,1.139951,1.128669,1.116753,1.103122,1.089303,1.077923,1.068387,1.058411,1.048498,1.040341,1.033067,1.025964,1.019801,1.014376,1.007831,0.999289,0.9902673,0.9815087,0.9713962,0.9596153,0.9488145,0.9400424,0.9306242,0.918246,0.906261,0.8974364,0.8898612,0.8814627,0.873005,0.8660477,0.8598942,0.8538777,0.8470347,0.8398688,0.8338319,0.8276933,0.8214811,0.8154495,0.8088082,0.8024326,0.7965863,0.7907217,0.7856355,0.7819854,0.7791101,0.7770092,0.7761469,0.776133,0.776774,0.7782679,0.7810485,0.7858058,0.7926075,0.800909,0.8097064,0.8177038,0.8243393,0.8297636,0.8343288,0.8378605,0.8400083,0.8412663,0.8421789,0.8422563,0.8407344,0.8379818,0.8354887,0.8333995,0.8308812,0.8280447,0.8255941,0.8243229,0.8245659,0.825886,0.8274844,0.8297855,0.8334785,0.8378496,0.842206,0.8460531,0.8487055,0.8498738,0.8493917,0.8470313,0.842942,0.8375346,0.8311937,0.8243924,0.8177176,0.8116112,0.8059616,0.8006411,0.795876,0.7917205,0.78821,0.7854103,0.7831993,0.7814341,0.7800015,0.778664,0.7772179,0.7755671,0.7736745,0.7716106,0.7694943,0.767373,0.7652157,0.7629968,0.7606781,0.7583442,0.7561597,0.7542835,0.7528662,0.7519604,0.7515739,0.7516838,0.7522198,0.7530847,0.7542182,0.7555645,0.7570511,0.7586523,0.7604334,0.7625421,0.7651337,0.7683204,0.7720991,0.7763301,0.7807463,0.7849778,0.7886029,0.7912263,0.7925077,0.792193,0.7903197,0.7874234,0.7844408,0.7822778,0.7814497,0.7820093,0.7837097,0.7862195,0.7892175,0.7924048,0.7955068,0.798342,0.8008113,0.8028512,0.8044351,0.8055798,0.8063568,0.8068919,0.8073073,0.8076266,0.8077405,0.807408,0.8063492,0.804342,0.801238,0.7970024,0.7917514,0.7857684,0.7794945,0.7734419,0.7680429,0.7635518,0.7600295,0.7574258,0.7556635,0.7546482,0.7542601,0.7543582,0.7548112,0.7555243,0.7564658,0.7576678,0.7592019,0.7611806,0.7637736,0.7672073,0.7717708,0.7778063,0.7856526,0.7955798,0.8077083,0.8219455,0.8380335,0.8557581,0.8752113,0.8969262,0.9217576,0.9505184,0.9834898,1.01999,1.058213,1.095563,1.129416,1.157766,1.179492,1.194479,1.20379,1.209642,1.215034,1.223292,1.237797,1.261749,1.297527,1.345087,1.39961,1.449761,1.478617,1.469839,1.418841,1.339059,1.25332,1.179792,1.126269,1.092631,1.075228,1.069558,1.071316,1.07715,1.08542,1.096017,1.108947,1.123061,1.136024,1.145222,1.148715,1.145505,1.13535,1.119025,1.0987,1.077475,1.058216,1.042609,1.031015,1.022978,1.01788,1.015341,1.015243,1.01762,1.02256,1.030192,1.04073,1.054463,1.071631,1.092231,1.115849,1.141656,1.168773,1.196801,1.226118,1.257764,1.293172,1.333927,1.381554,1.437404,1.502678,1.578498,1.665882,1.765806,1.879458,2.008348,2.153575,2.315514,2.493778,2.685779,2.88723,3.092884,3.29264,3.464618,3.588759,3.669186,3.726989,3.766232,3.775867,3.761758,3.746545,3.754316,3.764207,3.75184,3.742214,3.743962,3.740124,3.733278,3.728075,3.72702,3.736657,3.744405,3.743246,3.74417,3.744547,3.737277,3.728786,3.721489,3.715541,3.71468,3.71194,3.713205,3.723478,3.733044,3.730662,3.712022,3.690642,3.682802,3.682584,3.679287,3.680497,3.686313,3.690888,3.699543,3.711493,3.717711,3.709275,3.688163,3.670069,3.668333,3.683513,3.704959,3.712273,3.710467,3.715597,3.713291,3.696887,3.687645,3.693568,3.701203,3.695119,3.675914,3.659085,3.649234,3.639818,3.63243,3.63333,3.644452,3.656572,3.659493,3.65482,3.650873,3.656946,3.668936,3.661414,3.633896,3.620866,3.628906,3.642945,3.664509,3.680367,3.669176,3.645821,3.634519,3.632361,3.633996,3.637691,3.630646,3.615964,3.612866,3.618787,3.620179,3.617988,3.622516,3.636827,3.639004,3.615146,3.591218,3.589041,3.589536,3.573597,3.558227,3.55894,3.566668,3.568266,3.560988,3.556228,3.562792,3.571923
